# OpenSignals Text File Format. Version 1
# {"98:D3:51:FD:70:FB": {"position": 0, "device": "bitalino_rev", "device name": "98:D3:51:FD:70:FB", "device connection": "BTH98:D3:51:FD:70:FB", "sampling rate": 1000, "resolution": [4, 1, 1, 1, 1, 10], "firmware version": 1282, "comments": "", "keywords": "", "mode": 0, "sync interval": 2, "date": "2025-9-3", "time": "12:51:18.795", "channels": [1], "sensor": ["EMGBITREV"], "label": ["A1"], "column": ["nSeq", "I1", "I2", "O1", "O2", "A1"], "special": [{}], "digital IO": [0, 0, 1, 1]}}
# EndOfHeader
0	0	0	0	0	537	
1	0	0	0	0	424	
2	0	0	0	0	383	
3	0	0	0	0	293	
4	0	0	0	0	233	
5	0	0	0	0	340	
6	0	0	0	0	357	
7	0	0	0	0	384	
8	0	0	0	0	439	
9	0	0	0	0	534	
10	0	0	0	0	638	
11	0	0	0	0	658	
12	0	0	0	0	577	
13	0	0	0	0	559	
14	0	0	0	0	612	
15	0	0	0	0	715	
0	0	0	0	0	682	
1	0	0	0	0	607	
2	0	0	0	0	614	
3	0	0	0	0	543	
4	0	0	0	0	325	
5	0	0	0	0	220	
6	0	0	0	0	163	
7	0	0	0	0	155	
8	0	0	0	0	344	
9	0	0	0	0	503	
10	0	0	0	0	578	
11	0	0	0	0	534	
12	0	0	0	0	567	
13	0	0	0	0	614	
14	0	0	0	0	696	
15	0	0	0	0	806	
0	0	0	0	0	906	
1	0	0	0	0	841	
2	0	0	0	0	454	
3	0	0	0	0	326	
4	0	0	0	0	371	
5	0	0	0	0	355	
6	0	0	0	0	430	
7	0	0	0	0	463	
8	0	0	0	0	420	
9	0	0	0	0	402	
10	0	0	0	0	486	
11	0	0	0	0	541	
12	0	0	0	0	540	
13	0	0	0	0	588	
14	0	0	0	0	550	
15	0	0	0	0	499	
0	0	0	0	0	593	
1	0	0	0	0	691	
2	0	0	0	0	644	
3	0	0	0	0	437	
4	0	0	0	0	364	
5	0	0	0	0	375	
6	0	0	0	0	311	
7	0	0	0	0	316	
8	0	0	0	0	416	
9	0	0	0	0	537	
10	0	0	0	0	538	
11	0	0	0	0	538	
12	0	0	0	0	476	
13	0	0	0	0	518	
14	0	0	0	0	652	
15	0	0	0	0	700	
0	0	0	0	0	707	
1	0	0	0	0	852	
2	0	0	0	0	859	
3	0	0	0	0	592	
4	0	0	0	0	376	
5	0	0	0	0	377	
6	0	0	0	0	235	
7	0	0	0	0	139	
8	0	0	0	0	195	
9	0	0	0	0	289	
10	0	0	0	0	345	
11	0	0	0	0	299	
12	0	0	0	0	370	
13	0	0	0	0	431	
14	0	0	0	0	538	
15	0	0	0	0	778	
0	0	0	0	0	846	
1	0	0	0	0	869	
2	0	0	0	0	990	
3	0	0	0	0	920	
4	0	0	0	0	709	
5	0	0	0	0	512	
6	0	0	0	0	424	
7	0	0	0	0	215	
8	0	0	0	0	94	
9	0	0	0	0	118	
10	0	0	0	0	196	
11	0	0	0	0	306	
12	0	0	0	0	498	
13	0	0	0	0	625	
14	0	0	0	0	681	
15	0	0	0	0	607	
0	0	0	0	0	560	
1	0	0	0	0	537	
2	0	0	0	0	674	
3	0	0	0	0	814	
4	0	0	0	0	754	
5	0	0	0	0	660	
6	0	0	0	0	633	
7	0	0	0	0	467	
8	0	0	0	0	220	
9	0	0	0	0	110	
10	0	0	0	0	136	
11	0	0	0	0	324	
12	0	0	0	0	436	
13	0	0	0	0	551	
14	0	0	0	0	572	
15	0	0	0	0	574	
0	0	0	0	0	617	
1	0	0	0	0	555	
2	0	0	0	0	569	
3	0	0	0	0	743	
4	0	0	0	0	811	
5	0	0	0	0	686	
6	0	0	0	0	517	
7	0	0	0	0	445	
8	0	0	0	0	374	
9	0	0	0	0	275	
10	0	0	0	0	271	
11	0	0	0	0	303	
12	0	0	0	0	316	
13	0	0	0	0	331	
14	0	0	0	0	539	
15	0	0	0	0	698	
0	0	0	0	0	646	
1	0	0	0	0	651	
2	0	0	0	0	623	
3	0	0	0	0	740	
4	0	0	0	0	787	
5	0	0	0	0	654	
6	0	0	0	0	433	
7	0	0	0	0	347	
8	0	0	0	0	209	
9	0	0	0	0	151	
10	0	0	0	0	325	
11	0	0	0	0	442	
12	0	0	0	0	542	
13	0	0	0	0	626	
14	0	0	0	0	574	
15	0	0	0	0	492	
0	0	0	0	0	450	
1	0	0	0	0	528	
2	0	0	0	0	578	
3	0	0	0	0	598	
4	0	0	0	0	796	
5	0	0	0	0	928	
6	0	0	0	0	723	
7	0	0	0	0	492	
8	0	0	0	0	454	
9	0	0	0	0	383	
10	0	0	0	0	140	
11	0	0	0	0	117	
12	0	0	0	0	370	
13	0	0	0	0	688	
14	0	0	0	0	673	
15	0	0	0	0	630	
0	0	0	0	0	599	
1	0	0	0	0	459	
2	0	0	0	0	587	
3	0	0	0	0	511	
4	0	0	0	0	452	
5	0	0	0	0	644	
6	0	0	0	0	723	
7	0	0	0	0	603	
8	0	0	0	0	497	
9	0	0	0	0	407	
10	0	0	0	0	274	
11	0	0	0	0	161	
12	0	0	0	0	161	
13	0	0	0	0	219	
14	0	0	0	0	397	
15	0	0	0	0	566	
0	0	0	0	0	635	
1	0	0	0	0	710	
2	0	0	0	0	732	
3	0	0	0	0	663	
4	0	0	0	0	562	
5	0	0	0	0	643	
6	0	0	0	0	781	
7	0	0	0	0	771	
8	0	0	0	0	628	
9	0	0	0	0	504	
10	0	0	0	0	446	
11	0	0	0	0	260	
12	0	0	0	0	184	
13	0	0	0	0	185	
14	0	0	0	0	277	
15	0	0	0	0	319	
0	0	0	0	0	373	
1	0	0	0	0	313	
2	0	0	0	0	346	
3	0	0	0	0	608	
4	0	0	0	0	842	
5	0	0	0	0	969	
6	0	0	0	0	1022	
7	0	0	0	0	990	
8	0	0	0	0	813	
9	0	0	0	0	593	
10	0	0	0	0	377	
11	0	0	0	0	188	
12	0	0	0	0	103	
13	0	0	0	0	165	
14	0	0	0	0	204	
15	0	0	0	0	308	
0	0	0	0	0	378	
1	0	0	0	0	472	
2	0	0	0	0	452	
3	0	0	0	0	393	
4	0	0	0	0	456	
5	0	0	0	0	686	
6	0	0	0	0	728	
7	0	0	0	0	949	
8	0	0	0	0	1021	
9	0	0	0	0	708	
10	0	0	0	0	398	
11	0	0	0	0	295	
12	0	0	0	0	297	
13	0	0	0	0	311	
14	0	0	0	0	380	
15	0	0	0	0	537	
0	0	0	0	0	628	
1	0	0	0	0	548	
2	0	0	0	0	419	
3	0	0	0	0	454	
4	0	0	0	0	534	
5	0	0	0	0	512	
6	0	0	0	0	512	
7	0	0	0	0	626	
8	0	0	0	0	679	
9	0	0	0	0	661	
10	0	0	0	0	524	
11	0	0	0	0	475	
12	0	0	0	0	408	
13	0	0	0	0	247	
14	0	0	0	0	213	
15	0	0	0	0	330	
0	0	0	0	0	464	
1	0	0	0	0	667	
2	0	0	0	0	761	
3	0	0	0	0	532	
4	0	0	0	0	408	
5	0	0	0	0	497	
6	0	0	0	0	632	
7	0	0	0	0	625	
8	0	0	0	0	769	
9	0	0	0	0	901	
10	0	0	0	0	848	
11	0	0	0	0	569	
12	0	0	0	0	353	
13	0	0	0	0	152	
14	0	0	0	0	0	
15	0	0	0	0	106	
0	0	0	0	0	280	
1	0	0	0	0	428	
2	0	0	0	0	520	
3	0	0	0	0	579	
4	0	0	0	0	600	
5	0	0	0	0	676	
6	0	0	0	0	734	
7	0	0	0	0	655	
8	0	0	0	0	583	
9	0	0	0	0	671	
10	0	0	0	0	716	
11	0	0	0	0	674	
12	0	0	0	0	582	
13	0	0	0	0	431	
14	0	0	0	0	90	
15	0	0	0	0	46	
0	0	0	0	0	310	
1	0	0	0	0	492	
2	0	0	0	0	538	
3	0	0	0	0	548	
4	0	0	0	0	573	
5	0	0	0	0	492	
6	0	0	0	0	471	
7	0	0	0	0	528	
8	0	0	0	0	561	
9	0	0	0	0	627	
10	0	0	0	0	765	
11	0	0	0	0	820	
12	0	0	0	0	674	
13	0	0	0	0	538	
14	0	0	0	0	497	
15	0	0	0	0	275	
0	0	0	0	0	108	
1	0	0	0	0	100	
2	0	0	0	0	95	
3	0	0	0	0	247	
4	0	0	0	0	505	
5	0	0	0	0	839	
6	0	0	0	0	849	
7	0	0	0	0	612	
8	0	0	0	0	548	
9	0	0	0	0	528	
10	0	0	0	0	669	
11	0	0	0	0	747	
12	0	0	0	0	763	
13	0	0	0	0	639	
14	0	0	0	0	584	
15	0	0	0	0	478	
0	0	0	0	0	342	
1	0	0	0	0	215	
2	0	0	0	0	214	
3	0	0	0	0	432	
4	0	0	0	0	486	
5	0	0	0	0	476	
6	0	0	0	0	575	
7	0	0	0	0	769	
8	0	0	0	0	806	
9	0	0	0	0	719	
10	0	0	0	0	662	
11	0	0	0	0	678	
12	0	0	0	0	619	
13	0	0	0	0	359	
14	0	0	0	0	192	
15	0	0	0	0	255	
0	0	0	0	0	271	
1	0	0	0	0	245	
2	0	0	0	0	256	
3	0	0	0	0	288	
4	0	0	0	0	382	
5	0	0	0	0	408	
6	0	0	0	0	513	
7	0	0	0	0	648	
8	0	0	0	0	693	
9	0	0	0	0	763	
10	0	0	0	0	803	
11	0	0	0	0	852	
12	0	0	0	0	809	
13	0	0	0	0	640	
14	0	0	0	0	486	
15	0	0	0	0	519	
0	0	0	0	0	460	
1	0	0	0	0	311	
2	0	0	0	0	275	
3	0	0	0	0	264	
4	0	0	0	0	281	
5	0	0	0	0	229	
6	0	0	0	0	308	
7	0	0	0	0	550	
8	0	0	0	0	684	
9	0	0	0	0	733	
10	0	0	0	0	737	
11	0	0	0	0	574	
12	0	0	0	0	607	
13	0	0	0	0	722	
14	0	0	0	0	767	
15	0	0	0	0	633	
0	0	0	0	0	505	
1	0	0	0	0	355	
2	0	0	0	0	269	
3	0	0	0	0	155	
4	0	0	0	0	181	
5	0	0	0	0	321	
6	0	0	0	0	509	
7	0	0	0	0	625	
8	0	0	0	0	604	
9	0	0	0	0	511	
10	0	0	0	0	486	
11	0	0	0	0	622	
12	0	0	0	0	533	
13	0	0	0	0	610	
14	0	0	0	0	743	
15	0	0	0	0	614	
0	0	0	0	0	549	
1	0	0	0	0	547	
2	0	0	0	0	525	
3	0	0	0	0	428	
4	0	0	0	0	338	
5	0	0	0	0	283	
6	0	0	0	0	412	
7	0	0	0	0	487	
8	0	0	0	0	520	
9	0	0	0	0	504	
10	0	0	0	0	457	
11	0	0	0	0	478	
12	0	0	0	0	524	
13	0	0	0	0	639	
14	0	0	0	0	806	
15	0	0	0	0	790	
0	0	0	0	0	535	
1	0	0	0	0	434	
2	0	0	0	0	322	
3	0	0	0	0	143	
4	0	0	0	0	97	
5	0	0	0	0	253	
6	0	0	0	0	527	
7	0	0	0	0	784	
8	0	0	0	0	851	
9	0	0	0	0	823	
10	0	0	0	0	762	
11	0	0	0	0	655	
12	0	0	0	0	679	
13	0	0	0	0	615	
14	0	0	0	0	540	
15	0	0	0	0	622	
0	0	0	0	0	582	
1	0	0	0	0	470	
2	0	0	0	0	418	
3	0	0	0	0	233	
4	0	0	0	0	28	
5	0	0	0	0	112	
6	0	0	0	0	209	
7	0	0	0	0	326	
8	0	0	0	0	416	
9	0	0	0	0	542	
10	0	0	0	0	684	
11	0	0	0	0	570	
12	0	0	0	0	498	
13	0	0	0	0	501	
14	0	0	0	0	660	
15	0	0	0	0	878	
0	0	0	0	0	934	
1	0	0	0	0	654	
2	0	0	0	0	482	
3	0	0	0	0	457	
4	0	0	0	0	440	
5	0	0	0	0	441	
6	0	0	0	0	321	
7	0	0	0	0	150	
8	0	0	0	0	183	
9	0	0	0	0	382	
10	0	0	0	0	661	
11	0	0	0	0	773	
12	0	0	0	0	752	
13	0	0	0	0	684	
14	0	0	0	0	579	
15	0	0	0	0	633	
0	0	0	0	0	783	
1	0	0	0	0	767	
2	0	0	0	0	515	
3	0	0	0	0	380	
4	0	0	0	0	327	
5	0	0	0	0	79	
6	0	0	0	0	51	
7	0	0	0	0	93	
8	0	0	0	0	164	
9	0	0	0	0	342	
10	0	0	0	0	646	
11	0	0	0	0	896	
12	0	0	0	0	941	
13	0	0	0	0	896	
14	0	0	0	0	722	
15	0	0	0	0	646	
0	0	0	0	0	724	
1	0	0	0	0	800	
2	0	0	0	0	721	
3	0	0	0	0	543	
4	0	0	0	0	457	
5	0	0	0	0	310	
6	0	0	0	0	27	
7	0	0	0	0	91	
8	0	0	0	0	144	
9	0	0	0	0	159	
10	0	0	0	0	195	
11	0	0	0	0	453	
12	0	0	0	0	641	
13	0	0	0	0	748	
14	0	0	0	0	715	
15	0	0	0	0	549	
0	0	0	0	0	502	
1	0	0	0	0	594	
2	0	0	0	0	608	
3	0	0	0	0	675	
4	0	0	0	0	813	
5	0	0	0	0	739	
6	0	0	0	0	524	
7	0	0	0	0	352	
8	0	0	0	0	257	
9	0	0	0	0	267	
10	0	0	0	0	405	
11	0	0	0	0	420	
12	0	0	0	0	449	
13	0	0	0	0	517	
14	0	0	0	0	654	
15	0	0	0	0	683	
0	0	0	0	0	695	
1	0	0	0	0	810	
2	0	0	0	0	890	
3	0	0	0	0	791	
4	0	0	0	0	422	
5	0	0	0	0	271	
6	0	0	0	0	259	
7	0	0	0	0	192	
8	0	0	0	0	218	
9	0	0	0	0	289	
10	0	0	0	0	288	
11	0	0	0	0	335	
12	0	0	0	0	437	
13	0	0	0	0	508	
14	0	0	0	0	475	
15	0	0	0	0	543	
0	0	0	0	0	654	
1	0	0	0	0	707	
2	0	0	0	0	823	
3	0	0	0	0	844	
4	0	0	0	0	745	
5	0	0	0	0	463	
6	0	0	0	0	323	
7	0	0	0	0	306	
8	0	0	0	0	273	
9	0	0	0	0	318	
10	0	0	0	0	467	
11	0	0	0	0	598	
12	0	0	0	0	567	
13	0	0	0	0	539	
14	0	0	0	0	579	
15	0	0	0	0	627	
0	0	0	0	0	664	
1	0	0	0	0	661	
2	0	0	0	0	568	
3	0	0	0	0	690	
4	0	0	0	0	766	
5	0	0	0	0	662	
6	0	0	0	0	577	
7	0	0	0	0	536	
8	0	0	0	0	383	
9	0	0	0	0	168	
10	0	0	0	0	65	
11	0	0	0	0	64	
12	0	0	0	0	221	
13	0	0	0	0	352	
14	0	0	0	0	456	
15	0	0	0	0	503	
0	0	0	0	0	530	
1	0	0	0	0	631	
2	0	0	0	0	660	
3	0	0	0	0	720	
4	0	0	0	0	819	
5	0	0	0	0	806	
6	0	0	0	0	756	
7	0	0	0	0	740	
8	0	0	0	0	619	
9	0	0	0	0	362	
10	0	0	0	0	268	
11	0	0	0	0	288	
12	0	0	0	0	254	
13	0	0	0	0	304	
14	0	0	0	0	476	
15	0	0	0	0	494	
0	0	0	0	0	505	
1	0	0	0	0	650	
2	0	0	0	0	607	
3	0	0	0	0	552	
4	0	0	0	0	638	
5	0	0	0	0	716	
6	0	0	0	0	615	
7	0	0	0	0	466	
8	0	0	0	0	428	
9	0	0	0	0	262	
10	0	0	0	0	94	
11	0	0	0	0	145	
12	0	0	0	0	237	
13	0	0	0	0	421	
14	0	0	0	0	639	
15	0	0	0	0	825	
0	0	0	0	0	744	
1	0	0	0	0	688	
2	0	0	0	0	593	
3	0	0	0	0	507	
4	0	0	0	0	543	
5	0	0	0	0	641	
6	0	0	0	0	791	
7	0	0	0	0	571	
8	0	0	0	0	312	
9	0	0	0	0	345	
10	0	0	0	0	404	
11	0	0	0	0	474	
12	0	0	0	0	614	
13	0	0	0	0	636	
14	0	0	0	0	522	
15	0	0	0	0	327	
0	0	0	0	0	263	
1	0	0	0	0	388	
2	0	0	0	0	666	
3	0	0	0	0	766	
4	0	0	0	0	697	
5	0	0	0	0	666	
6	0	0	0	0	656	
7	0	0	0	0	679	
8	0	0	0	0	370	
9	0	0	0	0	220	
10	0	0	0	0	257	
11	0	0	0	0	249	
12	0	0	0	0	267	
13	0	0	0	0	439	
14	0	0	0	0	544	
15	0	0	0	0	626	
0	0	0	0	0	587	
1	0	0	0	0	539	
2	0	0	0	0	478	
3	0	0	0	0	470	
4	0	0	0	0	518	
5	0	0	0	0	591	
6	0	0	0	0	841	
7	0	0	0	0	998	
8	0	0	0	0	795	
9	0	0	0	0	426	
10	0	0	0	0	307	
11	0	0	0	0	247	
12	0	0	0	0	100	
13	0	0	0	0	30	
14	0	0	0	0	125	
15	0	0	0	0	230	
0	0	0	0	0	333	
1	0	0	0	0	526	
2	0	0	0	0	714	
3	0	0	0	0	769	
4	0	0	0	0	865	
5	0	0	0	0	1007	
6	0	0	0	0	965	
7	0	0	0	0	1022	
8	0	0	0	0	924	
9	0	0	0	0	673	
10	0	0	0	0	439	
11	0	0	0	0	279	
12	0	0	0	0	125	
13	0	0	0	0	101	
14	0	0	0	0	98	
15	0	0	0	0	100	
0	0	0	0	0	232	
1	0	0	0	0	309	
2	0	0	0	0	484	
3	0	0	0	0	550	
4	0	0	0	0	576	
5	0	0	0	0	637	
6	0	0	0	0	681	
7	0	0	0	0	823	
8	0	0	0	0	1022	
9	0	0	0	0	1017	
10	0	0	0	0	643	
11	0	0	0	0	443	
12	0	0	0	0	422	
13	0	0	0	0	251	
14	0	0	0	0	194	
15	0	0	0	0	191	
0	0	0	0	0	259	
1	0	0	0	0	382	
2	0	0	0	0	417	
3	0	0	0	0	415	
4	0	0	0	0	468	
5	0	0	0	0	571	
6	0	0	0	0	580	
7	0	0	0	0	593	
8	0	0	0	0	787	
9	0	0	0	0	861	
10	0	0	0	0	767	
11	0	0	0	0	592	
12	0	0	0	0	556	
13	0	0	0	0	493	
14	0	0	0	0	228	
15	0	0	0	0	78	
0	0	0	0	0	120	
1	0	0	0	0	337	
2	0	0	0	0	405	
3	0	0	0	0	448	
4	0	0	0	0	517	
5	0	0	0	0	704	
6	0	0	0	0	804	
7	0	0	0	0	788	
8	0	0	0	0	761	
9	0	0	0	0	964	
10	0	0	0	0	860	
11	0	0	0	0	510	
12	0	0	0	0	358	
13	0	0	0	0	267	
14	0	0	0	0	209	
15	0	0	0	0	265	
0	0	0	0	0	320	
1	0	0	0	0	294	
2	0	0	0	0	330	
3	0	0	0	0	334	
4	0	0	0	0	343	
5	0	0	0	0	342	
6	0	0	0	0	295	
7	0	0	0	0	433	
8	0	0	0	0	619	
9	0	0	0	0	847	
10	0	0	0	0	1020	
11	0	0	0	0	1022	
12	0	0	0	0	776	
13	0	0	0	0	610	
14	0	0	0	0	638	
15	0	0	0	0	470	
0	0	0	0	0	353	
1	0	0	0	0	363	
2	0	0	0	0	374	
3	0	0	0	0	251	
4	0	0	0	0	302	
5	0	0	0	0	411	
6	0	0	0	0	524	
7	0	0	0	0	601	
8	0	0	0	0	578	
9	0	0	0	0	614	
10	0	0	0	0	764	
11	0	0	0	0	703	
12	0	0	0	0	501	
13	0	0	0	0	285	
14	0	0	0	0	189	
15	0	0	0	0	292	
0	0	0	0	0	478	
1	0	0	0	0	493	
2	0	0	0	0	428	
3	0	0	0	0	587	
4	0	0	0	0	624	
5	0	0	0	0	612	
6	0	0	0	0	571	
7	0	0	0	0	681	
8	0	0	0	0	691	
9	0	0	0	0	512	
10	0	0	0	0	457	
11	0	0	0	0	651	
12	0	0	0	0	789	
13	0	0	0	0	684	
14	0	0	0	0	512	
15	0	0	0	0	376	
0	0	0	0	0	143	
1	0	0	0	0	126	
2	0	0	0	0	209	
3	0	0	0	0	295	
4	0	0	0	0	440	
5	0	0	0	0	422	
6	0	0	0	0	409	
7	0	0	0	0	486	
8	0	0	0	0	568	
9	0	0	0	0	592	
10	0	0	0	0	542	
11	0	0	0	0	618	
12	0	0	0	0	879	
13	0	0	0	0	933	
14	0	0	0	0	739	
15	0	0	0	0	578	
0	0	0	0	0	546	
1	0	0	0	0	334	
2	0	0	0	0	303	
3	0	0	0	0	429	
4	0	0	0	0	435	
5	0	0	0	0	386	
6	0	0	0	0	338	
7	0	0	0	0	308	
8	0	0	0	0	295	
9	0	0	0	0	401	
10	0	0	0	0	488	
11	0	0	0	0	661	
12	0	0	0	0	1012	
13	0	0	0	0	1022	
14	0	0	0	0	1013	
15	0	0	0	0	503	
0	0	0	0	0	305	
1	0	0	0	0	228	
2	0	0	0	0	105	
3	0	0	0	0	73	
4	0	0	0	0	255	
5	0	0	0	0	462	
6	0	0	0	0	598	
7	0	0	0	0	697	
8	0	0	0	0	676	
9	0	0	0	0	603	
10	0	0	0	0	594	
11	0	0	0	0	498	
12	0	0	0	0	486	
13	0	0	0	0	623	
14	0	0	0	0	681	
15	0	0	0	0	543	
0	0	0	0	0	535	
1	0	0	0	0	458	
2	0	0	0	0	318	
3	0	0	0	0	234	
4	0	0	0	0	288	
5	0	0	0	0	464	
6	0	0	0	0	492	
7	0	0	0	0	329	
8	0	0	0	0	332	
9	0	0	0	0	433	
10	0	0	0	0	431	
11	0	0	0	0	519	
12	0	0	0	0	612	
13	0	0	0	0	795	
14	0	0	0	0	875	
15	0	0	0	0	769	
0	0	0	0	0	500	
1	0	0	0	0	295	
2	0	0	0	0	353	
3	0	0	0	0	438	
4	0	0	0	0	684	
5	0	0	0	0	889	
6	0	0	0	0	811	
7	0	0	0	0	531	
8	0	0	0	0	441	
9	0	0	0	0	435	
10	0	0	0	0	408	
11	0	0	0	0	430	
12	0	0	0	0	460	
13	0	0	0	0	442	
14	0	0	0	0	600	
15	0	0	0	0	715	
0	0	0	0	0	633	
1	0	0	0	0	429	
2	0	0	0	0	342	
3	0	0	0	0	230	
4	0	0	0	0	94	
5	0	0	0	0	188	
6	0	0	0	0	232	
7	0	0	0	0	363	
8	0	0	0	0	483	
9	0	0	0	0	579	
10	0	0	0	0	691	
11	0	0	0	0	848	
12	0	0	0	0	929	
13	0	0	0	0	854	
14	0	0	0	0	743	
15	0	0	0	0	807	
0	0	0	0	0	746	
1	0	0	0	0	603	
2	0	0	0	0	402	
3	0	0	0	0	241	
4	0	0	0	0	85	
5	0	0	0	0	67	
6	0	0	0	0	136	
7	0	0	0	0	283	
8	0	0	0	0	505	
9	0	0	0	0	514	
10	0	0	0	0	542	
11	0	0	0	0	535	
12	0	0	0	0	684	
13	0	0	0	0	665	
14	0	0	0	0	547	
15	0	0	0	0	612	
0	0	0	0	0	749	
1	0	0	0	0	804	
2	0	0	0	0	727	
3	0	0	0	0	665	
4	0	0	0	0	454	
5	0	0	0	0	112	
6	0	0	0	0	0	
7	0	0	0	0	134	
8	0	0	0	0	425	
9	0	0	0	0	615	
10	0	0	0	0	749	
11	0	0	0	0	635	
12	0	0	0	0	615	
13	0	0	0	0	597	
14	0	0	0	0	479	
15	0	0	0	0	492	
0	0	0	0	0	653	
1	0	0	0	0	697	
2	0	0	0	0	794	
3	0	0	0	0	702	
4	0	0	0	0	523	
5	0	0	0	0	341	
6	0	0	0	0	185	
7	0	0	0	0	215	
8	0	0	0	0	292	
9	0	0	0	0	380	
10	0	0	0	0	451	
11	0	0	0	0	589	
12	0	0	0	0	551	
13	0	0	0	0	455	
14	0	0	0	0	480	
15	0	0	0	0	556	
0	0	0	0	0	691	
1	0	0	0	0	838	
2	0	0	0	0	763	
3	0	0	0	0	467	
4	0	0	0	0	349	
5	0	0	0	0	360	
6	0	0	0	0	425	
7	0	0	0	0	420	
8	0	0	0	0	449	
9	0	0	0	0	402	
10	0	0	0	0	397	
11	0	0	0	0	360	
12	0	0	0	0	354	
13	0	0	0	0	450	
14	0	0	0	0	669	
15	0	0	0	0	775	
0	0	0	0	0	821	
1	0	0	0	0	852	
2	0	0	0	0	761	
3	0	0	0	0	721	
4	0	0	0	0	509	
5	0	0	0	0	344	
6	0	0	0	0	399	
7	0	0	0	0	290	
8	0	0	0	0	133	
9	0	0	0	0	48	
10	0	0	0	0	77	
11	0	0	0	0	185	
12	0	0	0	0	375	
13	0	0	0	0	784	
14	0	0	0	0	896	
15	0	0	0	0	864	
0	0	0	0	0	867	
1	0	0	0	0	770	
2	0	0	0	0	769	
3	0	0	0	0	810	
4	0	0	0	0	799	
5	0	0	0	0	644	
6	0	0	0	0	518	
7	0	0	0	0	306	
8	0	0	0	0	44	
9	0	0	0	0	94	
10	0	0	0	0	281	
11	0	0	0	0	346	
12	0	0	0	0	136	
13	0	0	0	0	119	
14	0	0	0	0	148	
15	0	0	0	0	257	
0	0	0	0	0	448	
1	0	0	0	0	744	
2	0	0	0	0	1002	
3	0	0	0	0	1023	
4	0	0	0	0	1022	
5	0	0	0	0	903	
6	0	0	0	0	653	
7	0	0	0	0	502	
8	0	0	0	0	303	
9	0	0	0	0	247	
10	0	0	0	0	238	
11	0	0	0	0	204	
12	0	0	0	0	328	
13	0	0	0	0	311	
14	0	0	0	0	377	
15	0	0	0	0	519	
0	0	0	0	0	530	
1	0	0	0	0	477	
2	0	0	0	0	507	
3	0	0	0	0	652	
4	0	0	0	0	859	
5	0	0	0	0	807	
6	0	0	0	0	542	
7	0	0	0	0	501	
8	0	0	0	0	585	
9	0	0	0	0	398	
10	0	0	0	0	347	
11	0	0	0	0	395	
12	0	0	0	0	440	
13	0	0	0	0	467	
14	0	0	0	0	373	
15	0	0	0	0	268	
0	0	0	0	0	304	
1	0	0	0	0	437	
2	0	0	0	0	420	
3	0	0	0	0	455	
4	0	0	0	0	657	
5	0	0	0	0	1022	
6	0	0	0	0	1022	
7	0	0	0	0	856	
8	0	0	0	0	583	
9	0	0	0	0	334	
10	0	0	0	0	81	
11	0	0	0	0	124	
12	0	0	0	0	264	
13	0	0	0	0	402	
14	0	0	0	0	331	
15	0	0	0	0	397	
0	0	0	0	0	435	
1	0	0	0	0	529	
2	0	0	0	0	614	
3	0	0	0	0	603	
4	0	0	0	0	550	
5	0	0	0	0	723	
6	0	0	0	0	893	
7	0	0	0	0	907	
8	0	0	0	0	775	
9	0	0	0	0	633	
10	0	0	0	0	418	
11	0	0	0	0	296	
12	0	0	0	0	262	
13	0	0	0	0	190	
14	0	0	0	0	183	
15	0	0	0	0	120	
0	0	0	0	0	196	
1	0	0	0	0	368	
2	0	0	0	0	502	
3	0	0	0	0	631	
4	0	0	0	0	711	
5	0	0	0	0	835	
6	0	0	0	0	899	
7	0	0	0	0	807	
8	0	0	0	0	408	
9	0	0	0	0	0	
10	0	0	0	0	0	
11	0	0	0	0	145	
12	0	0	0	0	316	
13	0	0	0	0	646	
14	0	0	0	0	882	
15	0	0	0	0	1022	
0	0	0	0	0	1023	
1	0	0	0	0	1022	
2	0	0	0	0	839	
3	0	0	0	0	645	
4	0	0	0	0	420	
5	0	0	0	0	335	
6	0	0	0	0	436	
7	0	0	0	0	550	
8	0	0	0	0	448	
9	0	0	0	0	176	
10	0	0	0	0	57	
11	0	0	0	0	111	
12	0	0	0	0	151	
13	0	0	0	0	234	
14	0	0	0	0	281	
15	0	0	0	0	451	
0	0	0	0	0	745	
1	0	0	0	0	879	
2	0	0	0	0	777	
3	0	0	0	0	578	
4	0	0	0	0	538	
5	0	0	0	0	593	
6	0	0	0	0	650	
7	0	0	0	0	811	
8	0	0	0	0	753	
9	0	0	0	0	638	
10	0	0	0	0	534	
11	0	0	0	0	404	
12	0	0	0	0	77	
13	0	0	0	0	189	
14	0	0	0	0	419	
15	0	0	0	0	484	
0	0	0	0	0	487	
1	0	0	0	0	511	
2	0	0	0	0	627	
3	0	0	0	0	827	
4	0	0	0	0	696	
5	0	0	0	0	489	
6	0	0	0	0	411	
7	0	0	0	0	480	
8	0	0	0	0	647	
9	0	0	0	0	637	
10	0	0	0	0	396	
11	0	0	0	0	370	
12	0	0	0	0	467	
13	0	0	0	0	278	
14	0	0	0	0	83	
15	0	0	0	0	79	
0	0	0	0	0	86	
1	0	0	0	0	232	
2	0	0	0	0	421	
3	0	0	0	0	599	
4	0	0	0	0	848	
5	0	0	0	0	1020	
6	0	0	0	0	1000	
7	0	0	0	0	868	
8	0	0	0	0	708	
9	0	0	0	0	758	
10	0	0	0	0	800	
11	0	0	0	0	656	
12	0	0	0	0	556	
13	0	0	0	0	370	
14	0	0	0	0	139	
15	0	0	0	0	0	
0	0	0	0	0	53	
1	0	0	0	0	178	
2	0	0	0	0	303	
3	0	0	0	0	529	
4	0	0	0	0	715	
5	0	0	0	0	749	
6	0	0	0	0	725	
7	0	0	0	0	695	
8	0	0	0	0	684	
9	0	0	0	0	737	
10	0	0	0	0	689	
11	0	0	0	0	628	
12	0	0	0	0	568	
13	0	0	0	0	487	
14	0	0	0	0	321	
15	0	0	0	0	278	
0	0	0	0	0	190	
1	0	0	0	0	12	
2	0	0	0	0	30	
3	0	0	0	0	179	
4	0	0	0	0	300	
5	0	0	0	0	449	
6	0	0	0	0	760	
7	0	0	0	0	1018	
8	0	0	0	0	1023	
9	0	0	0	0	1022	
10	0	0	0	0	1022	
11	0	0	0	0	796	
12	0	0	0	0	429	
13	0	0	0	0	218	
14	0	0	0	0	191	
15	0	0	0	0	79	
0	0	0	0	0	48	
1	0	0	0	0	21	
2	0	0	0	0	130	
3	0	0	0	0	344	
4	0	0	0	0	492	
5	0	0	0	0	744	
6	0	0	0	0	857	
7	0	0	0	0	985	
8	0	0	0	0	988	
9	0	0	0	0	789	
10	0	0	0	0	620	
11	0	0	0	0	508	
12	0	0	0	0	479	
13	0	0	0	0	380	
14	0	0	0	0	330	
15	0	0	0	0	229	
0	0	0	0	0	57	
1	0	0	0	0	64	
2	0	0	0	0	196	
3	0	0	0	0	511	
4	0	0	0	0	743	
5	0	0	0	0	759	
6	0	0	0	0	671	
7	0	0	0	0	547	
8	0	0	0	0	397	
9	0	0	0	0	537	
10	0	0	0	0	613	
11	0	0	0	0	724	
12	0	0	0	0	902	
13	0	0	0	0	930	
14	0	0	0	0	717	
15	0	0	0	0	488	
0	0	0	0	0	164	
1	0	0	0	0	0	
2	0	0	0	0	95	
3	0	0	0	0	194	
4	0	0	0	0	313	
5	0	0	0	0	454	
6	0	0	0	0	496	
7	0	0	0	0	595	
8	0	0	0	0	787	
9	0	0	0	0	1022	
10	0	0	0	0	883	
11	0	0	0	0	442	
12	0	0	0	0	458	
13	0	0	0	0	702	
14	0	0	0	0	790	
15	0	0	0	0	718	
0	0	0	0	0	576	
1	0	0	0	0	230	
2	0	0	0	0	2	
3	0	0	0	0	17	
4	0	0	0	0	175	
5	0	0	0	0	283	
6	0	0	0	0	301	
7	0	0	0	0	179	
8	0	0	0	0	284	
9	0	0	0	0	507	
10	0	0	0	0	840	
11	0	0	0	0	1022	
12	0	0	0	0	1022	
13	0	0	0	0	1022	
14	0	0	0	0	1022	
15	0	0	0	0	715	
0	0	0	0	0	522	
1	0	0	0	0	243	
2	0	0	0	0	0	
3	0	0	0	0	0	
4	0	0	0	0	0	
5	0	0	0	0	91	
6	0	0	0	0	278	
7	0	0	0	0	467	
8	0	0	0	0	526	
9	0	0	0	0	625	
10	0	0	0	0	721	
11	0	0	0	0	644	
12	0	0	0	0	557	
13	0	0	0	0	716	
14	0	0	0	0	816	
15	0	0	0	0	750	
0	0	0	0	0	603	
1	0	0	0	0	478	
2	0	0	0	0	252	
3	0	0	0	0	43	
4	0	0	0	0	0	
5	0	0	0	0	86	
6	0	0	0	0	343	
7	0	0	0	0	670	
8	0	0	0	0	886	
9	0	0	0	0	766	
10	0	0	0	0	608	
11	0	0	0	0	527	
12	0	0	0	0	366	
13	0	0	0	0	394	
14	0	0	0	0	701	
15	0	0	0	0	751	
0	0	0	0	0	592	
1	0	0	0	0	671	
2	0	0	0	0	844	
3	0	0	0	0	707	
4	0	0	0	0	455	
5	0	0	0	0	312	
6	0	0	0	0	135	
7	0	0	0	0	236	
8	0	0	0	0	362	
9	0	0	0	0	467	
10	0	0	0	0	515	
11	0	0	0	0	414	
12	0	0	0	0	338	
13	0	0	0	0	389	
14	0	0	0	0	762	
15	0	0	0	0	1022	
0	0	0	0	0	1023	
1	0	0	0	0	830	
2	0	0	0	0	495	
3	0	0	0	0	332	
4	0	0	0	0	92	
5	0	0	0	0	0	
6	0	0	0	0	82	
7	0	0	0	0	347	
8	0	0	0	0	504	
9	0	0	0	0	608	
10	0	0	0	0	679	
11	0	0	0	0	750	
12	0	0	0	0	779	
13	0	0	0	0	648	
14	0	0	0	0	455	
15	0	0	0	0	610	
0	0	0	0	0	835	
1	0	0	0	0	793	
2	0	0	0	0	487	
3	0	0	0	0	298	
4	0	0	0	0	124	
5	0	0	0	0	0	
6	0	0	0	0	9	
7	0	0	0	0	150	
8	0	0	0	0	392	
9	0	0	0	0	460	
10	0	0	0	0	640	
11	0	0	0	0	710	
12	0	0	0	0	586	
13	0	0	0	0	504	
14	0	0	0	0	489	
15	0	0	0	0	725	
0	0	0	0	0	1022	
1	0	0	0	0	1022	
2	0	0	0	0	819	
3	0	0	0	0	546	
4	0	0	0	0	285	
5	0	0	0	0	161	
6	0	0	0	0	195	
7	0	0	0	0	383	
8	0	0	0	0	454	
9	0	0	0	0	399	
10	0	0	0	0	369	
11	0	0	0	0	491	
12	0	0	0	0	453	
13	0	0	0	0	432	
14	0	0	0	0	425	
15	0	0	0	0	435	
0	0	0	0	0	700	
1	0	0	0	0	1022	
2	0	0	0	0	1022	
3	0	0	0	0	796	
4	0	0	0	0	527	
5	0	0	0	0	124	
6	0	0	0	0	0	
7	0	0	0	0	0	
8	0	0	0	0	121	
9	0	0	0	0	442	
10	0	0	0	0	593	
11	0	0	0	0	680	
12	0	0	0	0	822	
13	0	0	0	0	845	
14	0	0	0	0	729	
15	0	0	0	0	539	
0	0	0	0	0	516	
1	0	0	0	0	693	
2	0	0	0	0	784	
3	0	0	0	0	564	
4	0	0	0	0	158	
5	0	0	0	0	163	
6	0	0	0	0	59	
7	0	0	0	0	0	
8	0	0	0	0	433	
9	0	0	0	0	689	
10	0	0	0	0	906	
11	0	0	0	0	843	
12	0	0	0	0	787	
13	0	0	0	0	618	
14	0	0	0	0	463	
15	0	0	0	0	405	
0	0	0	0	0	427	
1	0	0	0	0	513	
2	0	0	0	0	710	
3	0	0	0	0	801	
4	0	0	0	0	634	
5	0	0	0	0	538	
6	0	0	0	0	232	
7	0	0	0	0	0	
8	0	0	0	0	0	
9	0	0	0	0	0	
10	0	0	0	0	120	
11	0	0	0	0	558	
12	0	0	0	0	1008	
13	0	0	0	0	1022	
14	0	0	0	0	1022	
15	0	0	0	0	940	
0	0	0	0	0	597	
1	0	0	0	0	523	
2	0	0	0	0	515	
3	0	0	0	0	581	
4	0	0	0	0	568	
5	0	0	0	0	455	
6	0	0	0	0	559	
7	0	0	0	0	490	
8	0	0	0	0	172	
9	0	0	0	0	50	
10	0	0	0	0	16	
11	0	0	0	0	97	
12	0	0	0	0	237	
13	0	0	0	0	408	
14	0	0	0	0	455	
15	0	0	0	0	535	
0	0	0	0	0	729	
1	0	0	0	0	781	
2	0	0	0	0	850	
3	0	0	0	0	894	
4	0	0	0	0	858	
5	0	0	0	0	696	
6	0	0	0	0	422	
7	0	0	0	0	322	
8	0	0	0	0	327	
9	0	0	0	0	253	
10	0	0	0	0	242	
11	0	0	0	0	392	
12	0	0	0	0	572	
13	0	0	0	0	556	
14	0	0	0	0	627	
15	0	0	0	0	669	
0	0	0	0	0	544	
1	0	0	0	0	495	
2	0	0	0	0	445	
3	0	0	0	0	541	
4	0	0	0	0	683	
5	0	0	0	0	682	
6	0	0	0	0	436	
7	0	0	0	0	284	
8	0	0	0	0	424	
9	0	0	0	0	289	
10	0	0	0	0	318	
11	0	0	0	0	550	
12	0	0	0	0	770	
13	0	0	0	0	739	
14	0	0	0	0	581	
15	0	0	0	0	473	
0	0	0	0	0	456	
1	0	0	0	0	578	
2	0	0	0	0	669	
3	0	0	0	0	647	
4	0	0	0	0	677	
5	0	0	0	0	715	
6	0	0	0	0	626	
7	0	0	0	0	400	
8	0	0	0	0	408	
9	0	0	0	0	385	
10	0	0	0	0	252	
11	0	0	0	0	284	
12	0	0	0	0	268	
13	0	0	0	0	248	
14	0	0	0	0	291	
15	0	0	0	0	338	
0	0	0	0	0	509	
1	0	0	0	0	638	
2	0	0	0	0	745	
3	0	0	0	0	740	
4	0	0	0	0	639	
5	0	0	0	0	686	
6	0	0	0	0	776	
7	0	0	0	0	757	
8	0	0	0	0	611	
9	0	0	0	0	471	
10	0	0	0	0	196	
11	0	0	0	0	82	
12	0	0	0	0	121	
13	0	0	0	0	207	
14	0	0	0	0	505	
15	0	0	0	0	660	
0	0	0	0	0	638	
1	0	0	0	0	533	
2	0	0	0	0	502	
3	0	0	0	0	669	
4	0	0	0	0	774	
5	0	0	0	0	768	
6	0	0	0	0	855	
7	0	0	0	0	793	
8	0	0	0	0	490	
9	0	0	0	0	298	
10	0	0	0	0	363	
11	0	0	0	0	214	
12	0	0	0	0	92	
13	0	0	0	0	253	
14	0	0	0	0	388	
15	0	0	0	0	399	
0	0	0	0	0	444	
1	0	0	0	0	408	
2	0	0	0	0	361	
3	0	0	0	0	348	
4	0	0	0	0	369	
5	0	0	0	0	437	
6	0	0	0	0	686	
7	0	0	0	0	1022	
8	0	0	0	0	1023	
9	0	0	0	0	1022	
10	0	0	0	0	907	
11	0	0	0	0	720	
12	0	0	0	0	434	
13	0	0	0	0	263	
14	0	0	0	0	176	
15	0	0	0	0	150	
0	0	0	0	0	189	
1	0	0	0	0	331	
2	0	0	0	0	377	
3	0	0	0	0	423	
4	0	0	0	0	443	
5	0	0	0	0	377	
6	0	0	0	0	142	
7	0	0	0	0	250	
8	0	0	0	0	591	
9	0	0	0	0	905	
10	0	0	0	0	977	
11	0	0	0	0	881	
12	0	0	0	0	595	
13	0	0	0	0	345	
14	0	0	0	0	282	
15	0	0	0	0	376	
0	0	0	0	0	555	
1	0	0	0	0	368	
2	0	0	0	0	222	
3	0	0	0	0	300	
4	0	0	0	0	418	
5	0	0	0	0	486	
6	0	0	0	0	715	
7	0	0	0	0	947	
8	0	0	0	0	1022	
9	0	0	0	0	900	
10	0	0	0	0	641	
11	0	0	0	0	544	
12	0	0	0	0	391	
13	0	0	0	0	63	
14	0	0	0	0	0	
15	0	0	0	0	155	
0	0	0	0	0	367	
1	0	0	0	0	409	
2	0	0	0	0	443	
3	0	0	0	0	518	
4	0	0	0	0	558	
5	0	0	0	0	517	
6	0	0	0	0	504	
7	0	0	0	0	507	
8	0	0	0	0	661	
9	0	0	0	0	978	
10	0	0	0	0	1022	
11	0	0	0	0	765	
12	0	0	0	0	467	
13	0	0	0	0	267	
14	0	0	0	0	0	
15	0	0	0	0	0	
0	0	0	0	0	72	
1	0	0	0	0	319	
2	0	0	0	0	641	
3	0	0	0	0	910	
4	0	0	0	0	975	
5	0	0	0	0	740	
6	0	0	0	0	556	
7	0	0	0	0	456	
8	0	0	0	0	582	
9	0	0	0	0	734	
10	0	0	0	0	821	
11	0	0	0	0	680	
12	0	0	0	0	426	
13	0	0	0	0	257	
14	0	0	0	0	108	
15	0	0	0	0	100	
0	0	0	0	0	274	
1	0	0	0	0	552	
2	0	0	0	0	884	
3	0	0	0	0	884	
4	0	0	0	0	700	
5	0	0	0	0	462	
6	0	0	0	0	359	
7	0	0	0	0	420	
8	0	0	0	0	481	
9	0	0	0	0	487	
10	0	0	0	0	683	
11	0	0	0	0	819	
12	0	0	0	0	696	
13	0	0	0	0	412	
14	0	0	0	0	329	
15	0	0	0	0	114	
0	0	0	0	0	31	
1	0	0	0	0	143	
2	0	0	0	0	284	
3	0	0	0	0	468	
4	0	0	0	0	620	
5	0	0	0	0	722	
6	0	0	0	0	770	
7	0	0	0	0	730	
8	0	0	0	0	664	
9	0	0	0	0	568	
10	0	0	0	0	575	
11	0	0	0	0	571	
12	0	0	0	0	638	
13	0	0	0	0	775	
14	0	0	0	0	769	
15	0	0	0	0	549	
0	0	0	0	0	167	
1	0	0	0	0	43	
2	0	0	0	0	51	
3	0	0	0	0	69	
4	0	0	0	0	134	
5	0	0	0	0	247	
6	0	0	0	0	485	
7	0	0	0	0	821	
8	0	0	0	0	1009	
9	0	0	0	0	936	
10	0	0	0	0	871	
11	0	0	0	0	1022	
12	0	0	0	0	1021	
13	0	0	0	0	737	
14	0	0	0	0	310	
15	0	0	0	0	179	
0	0	0	0	0	139	
1	0	0	0	0	159	
2	0	0	0	0	281	
3	0	0	0	0	483	
4	0	0	0	0	614	
5	0	0	0	0	438	
6	0	0	0	0	311	
7	0	0	0	0	316	
8	0	0	0	0	365	
9	0	0	0	0	533	
10	0	0	0	0	755	
11	0	0	0	0	881	
12	0	0	0	0	847	
13	0	0	0	0	727	
14	0	0	0	0	422	
15	0	0	0	0	314	
0	0	0	0	0	410	
1	0	0	0	0	401	
2	0	0	0	0	452	
3	0	0	0	0	569	
4	0	0	0	0	383	
5	0	0	0	0	285	
6	0	0	0	0	191	
7	0	0	0	0	38	
8	0	0	0	0	0	
9	0	0	0	0	51	
10	0	0	0	0	393	
11	0	0	0	0	741	
12	0	0	0	0	1023	
13	0	0	0	0	1022	
14	0	0	0	0	1023	
15	0	0	0	0	1022	
0	0	0	0	0	627	
1	0	0	0	0	104	
2	0	0	0	0	0	
3	0	0	0	0	0	
4	0	0	0	0	0	
5	0	0	0	0	69	
6	0	0	0	0	203	
7	0	0	0	0	319	
8	0	0	0	0	629	
9	0	0	0	0	715	
10	0	0	0	0	701	
11	0	0	0	0	708	
12	0	0	0	0	553	
13	0	0	0	0	591	
14	0	0	0	0	743	
15	0	0	0	0	804	
0	0	0	0	0	637	
1	0	0	0	0	579	
2	0	0	0	0	526	
3	0	0	0	0	215	
4	0	0	0	0	48	
5	0	0	0	0	159	
6	0	0	0	0	438	
7	0	0	0	0	564	
8	0	0	0	0	696	
9	0	0	0	0	811	
10	0	0	0	0	649	
11	0	0	0	0	681	
12	0	0	0	0	738	
13	0	0	0	0	730	
14	0	0	0	0	865	
15	0	0	0	0	726	
0	0	0	0	0	406	
1	0	0	0	0	219	
2	0	0	0	0	101	
3	0	0	0	0	0	
4	0	0	0	0	83	
5	0	0	0	0	288	
6	0	0	0	0	352	
7	0	0	0	0	375	
8	0	0	0	0	307	
9	0	0	0	0	496	
10	0	0	0	0	684	
11	0	0	0	0	903	
12	0	0	0	0	1022	
13	0	0	0	0	1015	
14	0	0	0	0	788	
15	0	0	0	0	663	
0	0	0	0	0	646	
1	0	0	0	0	406	
2	0	0	0	0	328	
3	0	0	0	0	403	
4	0	0	0	0	348	
5	0	0	0	0	333	
6	0	0	0	0	300	
7	0	0	0	0	296	
8	0	0	0	0	412	
9	0	0	0	0	536	
10	0	0	0	0	591	
11	0	0	0	0	624	
12	0	0	0	0	475	
13	0	0	0	0	334	
14	0	0	0	0	443	
15	0	0	0	0	667	
0	0	0	0	0	691	
1	0	0	0	0	680	
2	0	0	0	0	476	
3	0	0	0	0	499	
4	0	0	0	0	579	
5	0	0	0	0	303	
6	0	0	0	0	108	
7	0	0	0	0	29	
8	0	0	0	0	128	
9	0	0	0	0	475	
10	0	0	0	0	944	
11	0	0	0	0	1022	
12	0	0	0	0	985	
13	0	0	0	0	809	
14	0	0	0	0	554	
15	0	0	0	0	521	
0	0	0	0	0	754	
1	0	0	0	0	811	
2	0	0	0	0	487	
3	0	0	0	0	312	
4	0	0	0	0	225	
5	0	0	0	0	162	
6	0	0	0	0	190	
7	0	0	0	0	255	
8	0	0	0	0	308	
9	0	0	0	0	456	
10	0	0	0	0	510	
11	0	0	0	0	527	
12	0	0	0	0	548	
13	0	0	0	0	568	
14	0	0	0	0	539	
15	0	0	0	0	442	
0	0	0	0	0	505	
1	0	0	0	0	675	
2	0	0	0	0	596	
3	0	0	0	0	478	
4	0	0	0	0	656	
5	0	0	0	0	834	
6	0	0	0	0	652	
7	0	0	0	0	432	
8	0	0	0	0	230	
9	0	0	0	0	195	
10	0	0	0	0	355	
11	0	0	0	0	473	
12	0	0	0	0	499	
13	0	0	0	0	498	
14	0	0	0	0	615	
15	0	0	0	0	679	
0	0	0	0	0	689	
1	0	0	0	0	761	
2	0	0	0	0	723	
3	0	0	0	0	594	
4	0	0	0	0	453	
5	0	0	0	0	464	
6	0	0	0	0	453	
7	0	0	0	0	188	
8	0	0	0	0	86	
9	0	0	0	0	147	
10	0	0	0	0	488	
11	0	0	0	0	541	
12	0	0	0	0	453	
13	0	0	0	0	391	
14	0	0	0	0	371	
15	0	0	0	0	355	
0	0	0	0	0	556	
1	0	0	0	0	940	
2	0	0	0	0	1022	
3	0	0	0	0	1023	
4	0	0	0	0	932	
5	0	0	0	0	547	
6	0	0	0	0	230	
7	0	0	0	0	72	
8	0	0	0	0	110	
9	0	0	0	0	157	
10	0	0	0	0	235	
11	0	0	0	0	313	
12	0	0	0	0	302	
13	0	0	0	0	611	
14	0	0	0	0	733	
15	0	0	0	0	743	
0	0	0	0	0	718	
1	0	0	0	0	667	
2	0	0	0	0	776	
3	0	0	0	0	972	
4	0	0	0	0	919	
5	0	0	0	0	576	
6	0	0	0	0	357	
7	0	0	0	0	224	
8	0	0	0	0	169	
9	0	0	0	0	178	
10	0	0	0	0	152	
11	0	0	0	0	115	
12	0	0	0	0	78	
13	0	0	0	0	200	
14	0	0	0	0	487	
15	0	0	0	0	661	
0	0	0	0	0	884	
1	0	0	0	0	882	
2	0	0	0	0	728	
3	0	0	0	0	716	
4	0	0	0	0	835	
5	0	0	0	0	886	
6	0	0	0	0	638	
7	0	0	0	0	378	
8	0	0	0	0	208	
9	0	0	0	0	92	
10	0	0	0	0	177	
11	0	0	0	0	315	
12	0	0	0	0	443	
13	0	0	0	0	479	
14	0	0	0	0	706	
15	0	0	0	0	706	
0	0	0	0	0	541	
1	0	0	0	0	508	
2	0	0	0	0	509	
3	0	0	0	0	534	
4	0	0	0	0	822	
5	0	0	0	0	1022	
6	0	0	0	0	1021	
7	0	0	0	0	578	
8	0	0	0	0	241	
9	0	0	0	0	0	
10	0	0	0	0	0	
11	0	0	0	0	113	
12	0	0	0	0	337	
13	0	0	0	0	621	
14	0	0	0	0	625	
15	0	0	0	0	622	
0	0	0	0	0	698	
1	0	0	0	0	594	
2	0	0	0	0	463	
3	0	0	0	0	605	
4	0	0	0	0	741	
5	0	0	0	0	801	
6	0	0	0	0	764	
7	0	0	0	0	444	
8	0	0	0	0	107	
9	0	0	0	0	113	
10	0	0	0	0	296	
11	0	0	0	0	600	
12	0	0	0	0	646	
13	0	0	0	0	619	
14	0	0	0	0	473	
15	0	0	0	0	373	
0	0	0	0	0	376	
1	0	0	0	0	352	
2	0	0	0	0	399	
3	0	0	0	0	446	
4	0	0	0	0	526	
5	0	0	0	0	739	
6	0	0	0	0	799	
7	0	0	0	0	782	
8	0	0	0	0	725	
9	0	0	0	0	617	
10	0	0	0	0	512	
11	0	0	0	0	303	
12	0	0	0	0	249	
13	0	0	0	0	265	
14	0	0	0	0	424	
15	0	0	0	0	506	
0	0	0	0	0	540	
1	0	0	0	0	504	
2	0	0	0	0	559	
3	0	0	0	0	536	
4	0	0	0	0	710	
5	0	0	0	0	814	
6	0	0	0	0	896	
7	0	0	0	0	809	
8	0	0	0	0	548	
9	0	0	0	0	237	
10	0	0	0	0	42	
11	0	0	0	0	0	
12	0	0	0	0	0	
13	0	0	0	0	0	
14	0	0	0	0	262	
15	0	0	0	0	769	
0	0	0	0	0	1022	
1	0	0	0	0	956	
2	0	0	0	0	781	
3	0	0	0	0	687	
4	0	0	0	0	668	
5	0	0	0	0	532	
6	0	0	0	0	534	
7	0	0	0	0	508	
8	0	0	0	0	466	
9	0	0	0	0	587	
10	0	0	0	0	534	
11	0	0	0	0	455	
12	0	0	0	0	165	
13	0	0	0	0	80	
14	0	0	0	0	174	
15	0	0	0	0	413	
0	0	0	0	0	657	
1	0	0	0	0	669	
2	0	0	0	0	610	
3	0	0	0	0	497	
4	0	0	0	0	572	
5	0	0	0	0	636	
6	0	0	0	0	602	
7	0	0	0	0	662	
8	0	0	0	0	668	
9	0	0	0	0	756	
10	0	0	0	0	686	
11	0	0	0	0	596	
12	0	0	0	0	510	
13	0	0	0	0	243	
14	0	0	0	0	98	
15	0	0	0	0	140	
0	0	0	0	0	217	
1	0	0	0	0	294	
2	0	0	0	0	451	
3	0	0	0	0	404	
4	0	0	0	0	563	
5	0	0	0	0	900	
6	0	0	0	0	888	
7	0	0	0	0	840	
8	0	0	0	0	775	
9	0	0	0	0	717	
10	0	0	0	0	687	
11	0	0	0	0	658	
12	0	0	0	0	461	
13	0	0	0	0	122	
14	0	0	0	0	14	
15	0	0	0	0	67	
0	0	0	0	0	93	
1	0	0	0	0	145	
2	0	0	0	0	259	
3	0	0	0	0	664	
4	0	0	0	0	877	
5	0	0	0	0	837	
6	0	0	0	0	760	
7	0	0	0	0	628	
8	0	0	0	0	717	
9	0	0	0	0	991	
10	0	0	0	0	1022	
11	0	0	0	0	705	
12	0	0	0	0	383	
13	0	0	0	0	263	
14	0	0	0	0	105	
15	0	0	0	0	136	
0	0	0	0	0	214	
1	0	0	0	0	319	
2	0	0	0	0	499	
3	0	0	0	0	611	
4	0	0	0	0	656	
5	0	0	0	0	469	
6	0	0	0	0	389	
7	0	0	0	0	408	
8	0	0	0	0	499	
9	0	0	0	0	732	
10	0	0	0	0	936	
11	0	0	0	0	1022	
12	0	0	0	0	728	
13	0	0	0	0	406	
14	0	0	0	0	167	
15	0	0	0	0	67	
0	0	0	0	0	149	
1	0	0	0	0	167	
2	0	0	0	0	308	
3	0	0	0	0	374	
4	0	0	0	0	416	
5	0	0	0	0	540	
6	0	0	0	0	523	
7	0	0	0	0	614	
8	0	0	0	0	770	
9	0	0	0	0	793	
10	0	0	0	0	839	
11	0	0	0	0	782	
12	0	0	0	0	577	
13	0	0	0	0	393	
14	0	0	0	0	526	
15	0	0	0	0	340	
0	0	0	0	0	52	
1	0	0	0	0	10	
2	0	0	0	0	81	
3	0	0	0	0	435	
4	0	0	0	0	587	
5	0	0	0	0	921	
6	0	0	0	0	1022	
7	0	0	0	0	875	
8	0	0	0	0	710	
9	0	0	0	0	718	
10	0	0	0	0	736	
11	0	0	0	0	822	
12	0	0	0	0	831	
13	0	0	0	0	591	
14	0	0	0	0	408	
15	0	0	0	0	253	
0	0	0	0	0	62	
1	0	0	0	0	0	
2	0	0	0	0	0	
3	0	0	0	0	81	
4	0	0	0	0	295	
5	0	0	0	0	452	
6	0	0	0	0	551	
7	0	0	0	0	559	
8	0	0	0	0	519	
9	0	0	0	0	467	
10	0	0	0	0	538	
11	0	0	0	0	790	
12	0	0	0	0	1022	
13	0	0	0	0	1022	
14	0	0	0	0	951	
15	0	0	0	0	565	
0	0	0	0	0	215	
1	0	0	0	0	157	
2	0	0	0	0	224	
3	0	0	0	0	193	
4	0	0	0	0	271	
5	0	0	0	0	410	
6	0	0	0	0	415	
7	0	0	0	0	362	
8	0	0	0	0	432	
9	0	0	0	0	509	
10	0	0	0	0	502	
11	0	0	0	0	528	
12	0	0	0	0	848	
13	0	0	0	0	1022	
14	0	0	0	0	951	
15	0	0	0	0	604	
0	0	0	0	0	367	
1	0	0	0	0	237	
2	0	0	0	0	204	
3	0	0	0	0	305	
4	0	0	0	0	450	
5	0	0	0	0	472	
6	0	0	0	0	435	
7	0	0	0	0	446	
8	0	0	0	0	482	
9	0	0	0	0	508	
10	0	0	0	0	508	
11	0	0	0	0	477	
12	0	0	0	0	514	
13	0	0	0	0	686	
14	0	0	0	0	767	
15	0	0	0	0	704	
0	0	0	0	0	742	
1	0	0	0	0	733	
2	0	0	0	0	467	
3	0	0	0	0	217	
4	0	0	0	0	156	
5	0	0	0	0	218	
6	0	0	0	0	334	
7	0	0	0	0	328	
8	0	0	0	0	450	
9	0	0	0	0	503	
10	0	0	0	0	519	
11	0	0	0	0	575	
12	0	0	0	0	604	
13	0	0	0	0	743	
14	0	0	0	0	762	
15	0	0	0	0	602	
0	0	0	0	0	486	
1	0	0	0	0	687	
2	0	0	0	0	816	
3	0	0	0	0	687	
4	0	0	0	0	405	
5	0	0	0	0	77	
6	0	0	0	0	85	
7	0	0	0	0	203	
8	0	0	0	0	425	
9	0	0	0	0	475	
10	0	0	0	0	524	
11	0	0	0	0	659	
12	0	0	0	0	674	
13	0	0	0	0	564	
14	0	0	0	0	601	
15	0	0	0	0	638	
0	0	0	0	0	575	
1	0	0	0	0	502	
2	0	0	0	0	581	
3	0	0	0	0	585	
4	0	0	0	0	559	
5	0	0	0	0	520	
6	0	0	0	0	392	
7	0	0	0	0	250	
8	0	0	0	0	200	
9	0	0	0	0	334	
10	0	0	0	0	495	
11	0	0	0	0	528	
12	0	0	0	0	536	
13	0	0	0	0	736	
14	0	0	0	0	899	
15	0	0	0	0	1021	
0	0	0	0	0	972	
1	0	0	0	0	722	
2	0	0	0	0	586	
3	0	0	0	0	497	
4	0	0	0	0	236	
5	0	0	0	0	36	
6	0	0	0	0	24	
7	0	0	0	0	123	
8	0	0	0	0	302	
9	0	0	0	0	339	
10	0	0	0	0	386	
11	0	0	0	0	423	
12	0	0	0	0	447	
13	0	0	0	0	537	
14	0	0	0	0	611	
15	0	0	0	0	889	
0	0	0	0	0	1022	
1	0	0	0	0	1022	
2	0	0	0	0	604	
3	0	0	0	0	445	
4	0	0	0	0	373	
5	0	0	0	0	195	
6	0	0	0	0	255	
7	0	0	0	0	283	
8	0	0	0	0	124	
9	0	0	0	0	195	
10	0	0	0	0	352	
11	0	0	0	0	344	
12	0	0	0	0	555	
13	0	0	0	0	913	
14	0	0	0	0	1014	
15	0	0	0	0	941	
0	0	0	0	0	954	
1	0	0	0	0	860	
2	0	0	0	0	605	
3	0	0	0	0	451	
4	0	0	0	0	379	
5	0	0	0	0	219	
6	0	0	0	0	110	
7	0	0	0	0	147	
8	0	0	0	0	329	
9	0	0	0	0	443	
10	0	0	0	0	524	
11	0	0	0	0	413	
12	0	0	0	0	231	
13	0	0	0	0	262	
14	0	0	0	0	526	
15	0	0	0	0	635	
0	0	0	0	0	676	
1	0	0	0	0	807	
2	0	0	0	0	684	
3	0	0	0	0	644	
4	0	0	0	0	781	
5	0	0	0	0	893	
6	0	0	0	0	551	
7	0	0	0	0	170	
8	0	0	0	0	28	
9	0	0	0	0	121	
10	0	0	0	0	488	
11	0	0	0	0	624	
12	0	0	0	0	651	
13	0	0	0	0	644	
14	0	0	0	0	653	
15	0	0	0	0	550	
0	0	0	0	0	521	
1	0	0	0	0	686	
2	0	0	0	0	675	
3	0	0	0	0	509	
4	0	0	0	0	439	
5	0	0	0	0	552	
6	0	0	0	0	618	
7	0	0	0	0	481	
8	0	0	0	0	503	
9	0	0	0	0	455	
10	0	0	0	0	249	
11	0	0	0	0	275	
12	0	0	0	0	388	
13	0	0	0	0	508	
14	0	0	0	0	594	
15	0	0	0	0	615	
0	0	0	0	0	523	
1	0	0	0	0	456	
2	0	0	0	0	661	
3	0	0	0	0	869	
4	0	0	0	0	774	
5	0	0	0	0	491	
6	0	0	0	0	315	
7	0	0	0	0	176	
8	0	0	0	0	49	
9	0	0	0	0	75	
10	0	0	0	0	204	
11	0	0	0	0	445	
12	0	0	0	0	559	
13	0	0	0	0	677	
14	0	0	0	0	698	
15	0	0	0	0	606	
0	0	0	0	0	635	
1	0	0	0	0	678	
2	0	0	0	0	676	
3	0	0	0	0	845	
4	0	0	0	0	843	
5	0	0	0	0	562	
6	0	0	0	0	363	
7	0	0	0	0	455	
8	0	0	0	0	351	
9	0	0	0	0	319	
10	0	0	0	0	372	
11	0	0	0	0	383	
12	0	0	0	0	503	
13	0	0	0	0	422	
14	0	0	0	0	333	
15	0	0	0	0	415	
0	0	0	0	0	563	
1	0	0	0	0	740	
2	0	0	0	0	754	
3	0	0	0	0	716	
4	0	0	0	0	736	
5	0	0	0	0	764	
6	0	0	0	0	624	
7	0	0	0	0	516	
8	0	0	0	0	300	
9	0	0	0	0	0	
10	0	0	0	0	0	
11	0	0	0	0	20	
12	0	0	0	0	469	
13	0	0	0	0	852	
14	0	0	0	0	973	
15	0	0	0	0	999	
0	0	0	0	0	801	
1	0	0	0	0	679	
2	0	0	0	0	629	
3	0	0	0	0	585	
4	0	0	0	0	604	
5	0	0	0	0	684	
6	0	0	0	0	609	
7	0	0	0	0	363	
8	0	0	0	0	311	
9	0	0	0	0	278	
10	0	0	0	0	191	
11	0	0	0	0	156	
12	0	0	0	0	271	
13	0	0	0	0	422	
14	0	0	0	0	503	
15	0	0	0	0	516	
0	0	0	0	0	425	
1	0	0	0	0	385	
2	0	0	0	0	502	
3	0	0	0	0	579	
4	0	0	0	0	657	
5	0	0	0	0	830	
6	0	0	0	0	977	
7	0	0	0	0	1020	
8	0	0	0	0	833	
9	0	0	0	0	542	
10	0	0	0	0	244	
11	0	0	0	0	70	
12	0	0	0	0	112	
13	0	0	0	0	215	
14	0	0	0	0	382	
15	0	0	0	0	583	
0	0	0	0	0	615	
1	0	0	0	0	394	
2	0	0	0	0	222	
3	0	0	0	0	186	
4	0	0	0	0	183	
5	0	0	0	0	551	
6	0	0	0	0	1022	
7	0	0	0	0	1022	
8	0	0	0	0	900	
9	0	0	0	0	602	
10	0	0	0	0	479	
11	0	0	0	0	438	
12	0	0	0	0	596	
13	0	0	0	0	546	
14	0	0	0	0	491	
15	0	0	0	0	379	
0	0	0	0	0	368	
1	0	0	0	0	447	
2	0	0	0	0	427	
3	0	0	0	0	450	
4	0	0	0	0	453	
5	0	0	0	0	407	
6	0	0	0	0	513	
7	0	0	0	0	702	
8	0	0	0	0	777	
9	0	0	0	0	558	
10	0	0	0	0	348	
11	0	0	0	0	365	
12	0	0	0	0	297	
13	0	0	0	0	262	
14	0	0	0	0	295	
15	0	0	0	0	378	
0	0	0	0	0	441	
1	0	0	0	0	492	
2	0	0	0	0	364	
3	0	0	0	0	495	
4	0	0	0	0	743	
5	0	0	0	0	870	
6	0	0	0	0	784	
7	0	0	0	0	815	
8	0	0	0	0	854	
9	0	0	0	0	743	
10	0	0	0	0	549	
11	0	0	0	0	473	
12	0	0	0	0	243	
13	0	0	0	0	149	
14	0	0	0	0	167	
15	0	0	0	0	224	
0	0	0	0	0	376	
1	0	0	0	0	456	
2	0	0	0	0	495	
3	0	0	0	0	455	
4	0	0	0	0	478	
5	0	0	0	0	496	
6	0	0	0	0	464	
7	0	0	0	0	649	
8	0	0	0	0	1011	
9	0	0	0	0	1022	
10	0	0	0	0	768	
11	0	0	0	0	506	
12	0	0	0	0	380	
13	0	0	0	0	213	
14	0	0	0	0	206	
15	0	0	0	0	302	
0	0	0	0	0	381	
1	0	0	0	0	483	
2	0	0	0	0	502	
3	0	0	0	0	488	
4	0	0	0	0	284	
5	0	0	0	0	203	
6	0	0	0	0	321	
7	0	0	0	0	537	
8	0	0	0	0	930	
9	0	0	0	0	1022	
10	0	0	0	0	1022	
11	0	0	0	0	796	
12	0	0	0	0	389	
13	0	0	0	0	185	
14	0	0	0	0	88	
15	0	0	0	0	189	
0	0	0	0	0	112	
1	0	0	0	0	11	
2	0	0	0	0	237	
3	0	0	0	0	407	
4	0	0	0	0	605	
5	0	0	0	0	569	
6	0	0	0	0	670	
7	0	0	0	0	806	
8	0	0	0	0	772	
9	0	0	0	0	848	
10	0	0	0	0	831	
11	0	0	0	0	731	
12	0	0	0	0	406	
13	0	0	0	0	359	
14	0	0	0	0	316	
15	0	0	0	0	245	
0	0	0	0	0	313	
1	0	0	0	0	399	
2	0	0	0	0	475	
3	0	0	0	0	551	
4	0	0	0	0	581	
5	0	0	0	0	466	
6	0	0	0	0	509	
7	0	0	0	0	606	
8	0	0	0	0	771	
9	0	0	0	0	827	
10	0	0	0	0	917	
11	0	0	0	0	826	
12	0	0	0	0	528	
13	0	0	0	0	460	
14	0	0	0	0	491	
15	0	0	0	0	254	
0	0	0	0	0	95	
1	0	0	0	0	110	
2	0	0	0	0	144	
3	0	0	0	0	224	
4	0	0	0	0	311	
5	0	0	0	0	410	
6	0	0	0	0	536	
7	0	0	0	0	692	
8	0	0	0	0	842	
9	0	0	0	0	806	
10	0	0	0	0	798	
11	0	0	0	0	832	
12	0	0	0	0	817	
13	0	0	0	0	578	
14	0	0	0	0	396	
15	0	0	0	0	224	
0	0	0	0	0	76	
1	0	0	0	0	121	
2	0	0	0	0	265	
3	0	0	0	0	534	
4	0	0	0	0	522	
5	0	0	0	0	535	
6	0	0	0	0	597	
7	0	0	0	0	481	
8	0	0	0	0	345	
9	0	0	0	0	149	
10	0	0	0	0	129	
11	0	0	0	0	455	
12	0	0	0	0	961	
13	0	0	0	0	1022	
14	0	0	0	0	1022	
15	0	0	0	0	1022	
0	0	0	0	0	582	
1	0	0	0	0	156	
2	0	0	0	0	134	
3	0	0	0	0	255	
4	0	0	0	0	366	
5	0	0	0	0	392	
6	0	0	0	0	519	
7	0	0	0	0	500	
8	0	0	0	0	435	
9	0	0	0	0	477	
10	0	0	0	0	413	
11	0	0	0	0	403	
12	0	0	0	0	642	
13	0	0	0	0	727	
14	0	0	0	0	516	
15	0	0	0	0	476	
0	0	0	0	0	602	
1	0	0	0	0	608	
2	0	0	0	0	478	
3	0	0	0	0	320	
4	0	0	0	0	263	
5	0	0	0	0	369	
6	0	0	0	0	345	
7	0	0	0	0	578	
8	0	0	0	0	825	
9	0	0	0	0	787	
10	0	0	0	0	590	
11	0	0	0	0	459	
12	0	0	0	0	653	
13	0	0	0	0	924	
14	0	0	0	0	979	
15	0	0	0	0	624	
0	0	0	0	0	366	
1	0	0	0	0	218	
2	0	0	0	0	56	
3	0	0	0	0	88	
4	0	0	0	0	167	
5	0	0	0	0	309	
6	0	0	0	0	378	
7	0	0	0	0	408	
8	0	0	0	0	466	
9	0	0	0	0	548	
10	0	0	0	0	662	
11	0	0	0	0	542	
12	0	0	0	0	385	
13	0	0	0	0	513	
14	0	0	0	0	753	
15	0	0	0	0	1022	
0	0	0	0	0	1022	
1	0	0	0	0	930	
2	0	0	0	0	445	
3	0	0	0	0	0	
4	0	0	0	0	15	
5	0	0	0	0	247	
6	0	0	0	0	524	
7	0	0	0	0	507	
8	0	0	0	0	508	
9	0	0	0	0	570	
10	0	0	0	0	610	
11	0	0	0	0	679	
12	0	0	0	0	559	
13	0	0	0	0	463	
14	0	0	0	0	729	
15	0	0	0	0	833	
0	0	0	0	0	589	
1	0	0	0	0	361	
2	0	0	0	0	267	
3	0	0	0	0	50	
4	0	0	0	0	0	
5	0	0	0	0	55	
6	0	0	0	0	331	
7	0	0	0	0	755	
8	0	0	0	0	908	
9	0	0	0	0	866	
10	0	0	0	0	815	
11	0	0	0	0	711	
12	0	0	0	0	647	
13	0	0	0	0	564	
14	0	0	0	0	542	
15	0	0	0	0	631	
0	0	0	0	0	703	
1	0	0	0	0	540	
2	0	0	0	0	494	
3	0	0	0	0	363	
4	0	0	0	0	56	
5	0	0	0	0	0	
6	0	0	0	0	150	
7	0	0	0	0	359	
8	0	0	0	0	472	
9	0	0	0	0	549	
10	0	0	0	0	545	
11	0	0	0	0	627	
12	0	0	0	0	693	
13	0	0	0	0	729	
14	0	0	0	0	876	
15	0	0	0	0	933	
0	0	0	0	0	907	
1	0	0	0	0	719	
2	0	0	0	0	529	
3	0	0	0	0	576	
4	0	0	0	0	478	
5	0	0	0	0	223	
6	0	0	0	0	74	
7	0	0	0	0	0	
8	0	0	0	0	22	
9	0	0	0	0	159	
10	0	0	0	0	359	
11	0	0	0	0	494	
12	0	0	0	0	674	
13	0	0	0	0	652	
14	0	0	0	0	397	
15	0	0	0	0	422	
0	0	0	0	0	898	
1	0	0	0	0	1022	
2	0	0	0	0	1022	
3	0	0	0	0	745	
4	0	0	0	0	409	
5	0	0	0	0	255	
6	0	0	0	0	204	
7	0	0	0	0	263	
8	0	0	0	0	331	
9	0	0	0	0	512	
10	0	0	0	0	590	
11	0	0	0	0	646	
12	0	0	0	0	610	
13	0	0	0	0	582	
14	0	0	0	0	588	
15	0	0	0	0	461	
0	0	0	0	0	434	
1	0	0	0	0	565	
2	0	0	0	0	612	
3	0	0	0	0	469	
4	0	0	0	0	459	
5	0	0	0	0	438	
6	0	0	0	0	320	
7	0	0	0	0	288	
8	0	0	0	0	252	
9	0	0	0	0	217	
10	0	0	0	0	283	
11	0	0	0	0	480	
12	0	0	0	0	613	
13	0	0	0	0	706	
14	0	0	0	0	786	
15	0	0	0	0	837	
0	0	0	0	0	803	
1	0	0	0	0	805	
2	0	0	0	0	744	
3	0	0	0	0	562	
4	0	0	0	0	326	
5	0	0	0	0	385	
6	0	0	0	0	301	
7	0	0	0	0	7	
8	0	0	0	0	0	
9	0	0	0	0	0	
10	0	0	0	0	296	
11	0	0	0	0	611	
12	0	0	0	0	843	
13	0	0	0	0	900	
14	0	0	0	0	771	
15	0	0	0	0	604	
0	0	0	0	0	509	
1	0	0	0	0	619	
2	0	0	0	0	1022	
3	0	0	0	0	1022	
4	0	0	0	0	791	
5	0	0	0	0	444	
6	0	0	0	0	318	
7	0	0	0	0	49	
8	0	0	0	0	0	
9	0	0	0	0	0	
10	0	0	0	0	0	
11	0	0	0	0	317	
12	0	0	0	0	451	
13	0	0	0	0	518	
14	0	0	0	0	518	
15	0	0	0	0	670	
0	0	0	0	0	964	
1	0	0	0	0	995	
2	0	0	0	0	945	
3	0	0	0	0	983	
4	0	0	0	0	883	
5	0	0	0	0	691	
6	0	0	0	0	524	
7	0	0	0	0	371	
8	0	0	0	0	104	
9	0	0	0	0	86	
10	0	0	0	0	79	
11	0	0	0	0	167	
12	0	0	0	0	276	
13	0	0	0	0	408	
14	0	0	0	0	361	
15	0	0	0	0	283	
0	0	0	0	0	403	
1	0	0	0	0	607	
2	0	0	0	0	786	
3	0	0	0	0	1022	
4	0	0	0	0	1022	
5	0	0	0	0	918	
6	0	0	0	0	497	
7	0	0	0	0	286	
8	0	0	0	0	182	
9	0	0	0	0	206	
10	0	0	0	0	327	
11	0	0	0	0	448	
12	0	0	0	0	565	
13	0	0	0	0	405	
14	0	0	0	0	326	
15	0	0	0	0	300	
0	0	0	0	0	312	
1	0	0	0	0	375	
2	0	0	0	0	515	
3	0	0	0	0	766	
4	0	0	0	0	1014	
5	0	0	0	0	1022	
6	0	0	0	0	753	
7	0	0	0	0	523	
8	0	0	0	0	408	
9	0	0	0	0	307	
10	0	0	0	0	112	
11	0	0	0	0	145	
12	0	0	0	0	297	
13	0	0	0	0	513	
14	0	0	0	0	547	
15	0	0	0	0	591	
0	0	0	0	0	591	
1	0	0	0	0	542	
2	0	0	0	0	455	
3	0	0	0	0	452	
4	0	0	0	0	579	
5	0	0	0	0	865	
6	0	0	0	0	957	
7	0	0	0	0	780	
8	0	0	0	0	605	
9	0	0	0	0	380	
10	0	0	0	0	17	
11	0	0	0	0	18	
12	0	0	0	0	104	
13	0	0	0	0	89	
14	0	0	0	0	33	
15	0	0	0	0	371	
0	0	0	0	0	726	
1	0	0	0	0	809	
2	0	0	0	0	901	
3	0	0	0	0	865	
4	0	0	0	0	857	
5	0	0	0	0	896	
6	0	0	0	0	981	
7	0	0	0	0	817	
8	0	0	0	0	567	
9	0	0	0	0	495	
10	0	0	0	0	485	
11	0	0	0	0	292	
12	0	0	0	0	147	
13	0	0	0	0	111	
14	0	0	0	0	172	
15	0	0	0	0	229	
0	0	0	0	0	363	
1	0	0	0	0	398	
2	0	0	0	0	403	
3	0	0	0	0	582	
4	0	0	0	0	773	
5	0	0	0	0	677	
6	0	0	0	0	692	
7	0	0	0	0	795	
8	0	0	0	0	705	
9	0	0	0	0	489	
10	0	0	0	0	455	
11	0	0	0	0	462	
12	0	0	0	0	432	
13	0	0	0	0	445	
14	0	0	0	0	343	
15	0	0	0	0	302	
0	0	0	0	0	270	
1	0	0	0	0	434	
2	0	0	0	0	529	
3	0	0	0	0	520	
4	0	0	0	0	493	
5	0	0	0	0	424	
6	0	0	0	0	510	
7	0	0	0	0	860	
8	0	0	0	0	1022	
9	0	0	0	0	931	
10	0	0	0	0	867	
11	0	0	0	0	667	
12	0	0	0	0	276	
13	0	0	0	0	0	
14	0	0	0	0	20	
15	0	0	0	0	282	
0	0	0	0	0	508	
1	0	0	0	0	581	
2	0	0	0	0	573	
3	0	0	0	0	573	
4	0	0	0	0	497	
5	0	0	0	0	521	
6	0	0	0	0	514	
7	0	0	0	0	587	
8	0	0	0	0	611	
9	0	0	0	0	521	
10	0	0	0	0	461	
11	0	0	0	0	334	
12	0	0	0	0	263	
13	0	0	0	0	240	
14	0	0	0	0	307	
15	0	0	0	0	614	
0	0	0	0	0	814	
1	0	0	0	0	700	
2	0	0	0	0	487	
3	0	0	0	0	337	
4	0	0	0	0	315	
5	0	0	0	0	446	
6	0	0	0	0	487	
7	0	0	0	0	488	
8	0	0	0	0	672	
9	0	0	0	0	751	
10	0	0	0	0	664	
11	0	0	0	0	660	
12	0	0	0	0	658	
13	0	0	0	0	600	
14	0	0	0	0	542	
15	0	0	0	0	490	
0	0	0	0	0	390	
1	0	0	0	0	377	
2	0	0	0	0	467	
3	0	0	0	0	708	
4	0	0	0	0	656	
5	0	0	0	0	514	
6	0	0	0	0	393	
7	0	0	0	0	431	
8	0	0	0	0	511	
9	0	0	0	0	753	
10	0	0	0	0	884	
11	0	0	0	0	717	
12	0	0	0	0	555	
13	0	0	0	0	415	
14	0	0	0	0	176	
15	0	0	0	0	0	
0	0	0	0	0	0	
1	0	0	0	0	80	
2	0	0	0	0	143	
3	0	0	0	0	281	
4	0	0	0	0	492	
5	0	0	0	0	666	
6	0	0	0	0	676	
7	0	0	0	0	616	
8	0	0	0	0	694	
9	0	0	0	0	912	
10	0	0	0	0	981	
11	0	0	0	0	840	
12	0	0	0	0	562	
13	0	0	0	0	574	
14	0	0	0	0	615	
15	0	0	0	0	492	
0	0	0	0	0	321	
1	0	0	0	0	288	
2	0	0	0	0	433	
3	0	0	0	0	363	
4	0	0	0	0	252	
5	0	0	0	0	401	
6	0	0	0	0	490	
7	0	0	0	0	471	
8	0	0	0	0	443	
9	0	0	0	0	532	
10	0	0	0	0	794	
11	0	0	0	0	1022	
12	0	0	0	0	919	
13	0	0	0	0	502	
14	0	0	0	0	231	
15	0	0	0	0	61	
0	0	0	0	0	113	
1	0	0	0	0	389	
2	0	0	0	0	495	
3	0	0	0	0	603	
4	0	0	0	0	709	
5	0	0	0	0	705	
6	0	0	0	0	645	
7	0	0	0	0	618	
8	0	0	0	0	618	
9	0	0	0	0	571	
10	0	0	0	0	538	
11	0	0	0	0	655	
12	0	0	0	0	697	
13	0	0	0	0	560	
14	0	0	0	0	462	
15	0	0	0	0	404	
0	0	0	0	0	188	
1	0	0	0	0	0	
2	0	0	0	0	0	
3	0	0	0	0	0	
4	0	0	0	0	183	
5	0	0	0	0	467	
6	0	0	0	0	748	
7	0	0	0	0	702	
8	0	0	0	0	586	
9	0	0	0	0	521	
10	0	0	0	0	585	
11	0	0	0	0	716	
12	0	0	0	0	930	
13	0	0	0	0	1022	
14	0	0	0	0	1022	
15	0	0	0	0	998	
0	0	0	0	0	743	
1	0	0	0	0	409	
2	0	0	0	0	177	
3	0	0	0	0	105	
4	0	0	0	0	76	
5	0	0	0	0	173	
6	0	0	0	0	299	
7	0	0	0	0	331	
8	0	0	0	0	351	
9	0	0	0	0	393	
10	0	0	0	0	469	
11	0	0	0	0	638	
12	0	0	0	0	1015	
13	0	0	0	0	1022	
14	0	0	0	0	877	
15	0	0	0	0	636	
0	0	0	0	0	493	
1	0	0	0	0	220	
2	0	0	0	0	80	
3	0	0	0	0	115	
4	0	0	0	0	170	
5	0	0	0	0	304	
6	0	0	0	0	194	
7	0	0	0	0	383	
8	0	0	0	0	536	
9	0	0	0	0	661	
10	0	0	0	0	727	
11	0	0	0	0	609	
12	0	0	0	0	630	
13	0	0	0	0	1021	
14	0	0	0	0	1022	
15	0	0	0	0	860	
0	0	0	0	0	581	
1	0	0	0	0	424	
2	0	0	0	0	151	
3	0	0	0	0	54	
4	0	0	0	0	126	
5	0	0	0	0	291	
6	0	0	0	0	484	
7	0	0	0	0	528	
8	0	0	0	0	487	
9	0	0	0	0	411	
10	0	0	0	0	332	
11	0	0	0	0	253	
12	0	0	0	0	296	
13	0	0	0	0	550	
14	0	0	0	0	917	
15	0	0	0	0	965	
0	0	0	0	0	890	
1	0	0	0	0	876	
2	0	0	0	0	792	
3	0	0	0	0	478	
4	0	0	0	0	224	
5	0	0	0	0	148	
6	0	0	0	0	176	
7	0	0	0	0	332	
8	0	0	0	0	455	
9	0	0	0	0	533	
10	0	0	0	0	529	
11	0	0	0	0	422	
12	0	0	0	0	304	
13	0	0	0	0	121	
14	0	0	0	0	339	
15	0	0	0	0	745	
0	0	0	0	0	883	
1	0	0	0	0	889	
2	0	0	0	0	903	
3	0	0	0	0	907	
4	0	0	0	0	884	
5	0	0	0	0	591	
6	0	0	0	0	268	
7	0	0	0	0	96	
8	0	0	0	0	130	
9	0	0	0	0	350	
10	0	0	0	0	467	
11	0	0	0	0	519	
12	0	0	0	0	566	
13	0	0	0	0	590	
14	0	0	0	0	579	
15	0	0	0	0	658	
0	0	0	0	0	661	
1	0	0	0	0	555	
2	0	0	0	0	416	
3	0	0	0	0	266	
4	0	0	0	0	41	
5	0	0	0	0	0	
6	0	0	0	0	96	
7	0	0	0	0	150	
8	0	0	0	0	313	
9	0	0	0	0	579	
10	0	0	0	0	971	
11	0	0	0	0	1022	
12	0	0	0	0	1023	
13	0	0	0	0	962	
14	0	0	0	0	694	
15	0	0	0	0	559	
0	0	0	0	0	694	
1	0	0	0	0	668	
2	0	0	0	0	372	
3	0	0	0	0	314	
4	0	0	0	0	265	
5	0	0	0	0	137	
6	0	0	0	0	109	
7	0	0	0	0	159	
8	0	0	0	0	114	
9	0	0	0	0	205	
10	0	0	0	0	413	
11	0	0	0	0	688	
12	0	0	0	0	944	
13	0	0	0	0	1018	
14	0	0	0	0	930	
15	0	0	0	0	712	
0	0	0	0	0	616	
1	0	0	0	0	576	
2	0	0	0	0	393	
3	0	0	0	0	229	
4	0	0	0	0	227	
5	0	0	0	0	280	
6	0	0	0	0	285	
7	0	0	0	0	333	
8	0	0	0	0	373	
9	0	0	0	0	526	
10	0	0	0	0	691	
11	0	0	0	0	838	
12	0	0	0	0	830	
13	0	0	0	0	585	
14	0	0	0	0	410	
15	0	0	0	0	351	
0	0	0	0	0	388	
1	0	0	0	0	683	
2	0	0	0	0	860	
3	0	0	0	0	876	
4	0	0	0	0	749	
5	0	0	0	0	491	
6	0	0	0	0	54	
7	0	0	0	0	0	
8	0	0	0	0	0	
9	0	0	0	0	0	
10	0	0	0	0	312	
11	0	0	0	0	658	
12	0	0	0	0	891	
13	0	0	0	0	913	
14	0	0	0	0	734	
15	0	0	0	0	659	
0	0	0	0	0	658	
1	0	0	0	0	475	
2	0	0	0	0	576	
3	0	0	0	0	594	
4	0	0	0	0	355	
5	0	0	0	0	252	
6	0	0	0	0	178	
7	0	0	0	0	382	
8	0	0	0	0	773	
9	0	0	0	0	886	
10	0	0	0	0	806	
11	0	0	0	0	587	
12	0	0	0	0	541	
13	0	0	0	0	520	
14	0	0	0	0	514	
15	0	0	0	0	532	
0	0	0	0	0	499	
1	0	0	0	0	444	
2	0	0	0	0	630	
3	0	0	0	0	814	
4	0	0	0	0	723	
5	0	0	0	0	527	
6	0	0	0	0	431	
7	0	0	0	0	328	
8	0	0	0	0	100	
9	0	0	0	0	110	
10	0	0	0	0	127	
11	0	0	0	0	233	
12	0	0	0	0	427	
13	0	0	0	0	570	
14	0	0	0	0	628	
15	0	0	0	0	618	
0	0	0	0	0	600	
1	0	0	0	0	611	
2	0	0	0	0	565	
3	0	0	0	0	695	
4	0	0	0	0	811	
5	0	0	0	0	716	
6	0	0	0	0	599	
7	0	0	0	0	535	
8	0	0	0	0	339	
9	0	0	0	0	166	
10	0	0	0	0	149	
11	0	0	0	0	235	
12	0	0	0	0	454	
13	0	0	0	0	466	
14	0	0	0	0	344	
15	0	0	0	0	224	
0	0	0	0	0	320	
1	0	0	0	0	529	
2	0	0	0	0	782	
3	0	0	0	0	1020	
4	0	0	0	0	1022	
5	0	0	0	0	1022	
6	0	0	0	0	812	
7	0	0	0	0	411	
8	0	0	0	0	391	
9	0	0	0	0	359	
10	0	0	0	0	250	
11	0	0	0	0	160	
12	0	0	0	0	172	
13	0	0	0	0	391	
14	0	0	0	0	534	
15	0	0	0	0	552	
0	0	0	0	0	499	
1	0	0	0	0	478	
2	0	0	0	0	470	
3	0	0	0	0	428	
4	0	0	0	0	526	
5	0	0	0	0	659	
6	0	0	0	0	873	
7	0	0	0	0	724	
8	0	0	0	0	680	
9	0	0	0	0	655	
10	0	0	0	0	401	
11	0	0	0	0	180	
12	0	0	0	0	42	
13	0	0	0	0	107	
14	0	0	0	0	312	
15	0	0	0	0	361	
0	0	0	0	0	340	
1	0	0	0	0	267	
2	0	0	0	0	411	
3	0	0	0	0	691	
4	0	0	0	0	1021	
5	0	0	0	0	1022	
6	0	0	0	0	1022	
7	0	0	0	0	1022	
8	0	0	0	0	727	
9	0	0	0	0	539	
10	0	0	0	0	327	
11	0	0	0	0	35	
12	0	0	0	0	0	
13	0	0	0	0	0	
14	0	0	0	0	0	
15	0	0	0	0	112	
0	0	0	0	0	513	
1	0	0	0	0	828	
2	0	0	0	0	956	
3	0	0	0	0	952	
4	0	0	0	0	833	
5	0	0	0	0	696	
6	0	0	0	0	708	
7	0	0	0	0	618	
8	0	0	0	0	455	
9	0	0	0	0	410	
10	0	0	0	0	419	
11	0	0	0	0	271	
12	0	0	0	0	196	
13	0	0	0	0	0	
14	0	0	0	0	0	
15	0	0	0	0	115	
0	0	0	0	0	230	
1	0	0	0	0	459	
2	0	0	0	0	678	
3	0	0	0	0	961	
4	0	0	0	0	961	
5	0	0	0	0	743	
6	0	0	0	0	656	
7	0	0	0	0	849	
8	0	0	0	0	900	
9	0	0	0	0	598	
10	0	0	0	0	422	
11	0	0	0	0	438	
12	0	0	0	0	414	
13	0	0	0	0	476	
14	0	0	0	0	547	
15	0	0	0	0	473	
0	0	0	0	0	314	
1	0	0	0	0	312	
2	0	0	0	0	368	
3	0	0	0	0	395	
4	0	0	0	0	348	
5	0	0	0	0	439	
6	0	0	0	0	637	
7	0	0	0	0	832	
8	0	0	0	0	912	
9	0	0	0	0	827	
10	0	0	0	0	528	
11	0	0	0	0	526	
12	0	0	0	0	459	
13	0	0	0	0	323	
14	0	0	0	0	238	
15	0	0	0	0	182	
0	0	0	0	0	289	
1	0	0	0	0	338	
2	0	0	0	0	370	
3	0	0	0	0	484	
4	0	0	0	0	635	
5	0	0	0	0	614	
6	0	0	0	0	675	
7	0	0	0	0	684	
8	0	0	0	0	868	
9	0	0	0	0	914	
10	0	0	0	0	659	
11	0	0	0	0	333	
12	0	0	0	0	214	
13	0	0	0	0	155	
14	0	0	0	0	14	
15	0	0	0	0	32	
0	0	0	0	0	139	
1	0	0	0	0	437	
2	0	0	0	0	745	
3	0	0	0	0	894	
4	0	0	0	0	846	
5	0	0	0	0	779	
6	0	0	0	0	673	
7	0	0	0	0	557	
8	0	0	0	0	612	
9	0	0	0	0	746	
10	0	0	0	0	829	
11	0	0	0	0	490	
12	0	0	0	0	342	
13	0	0	0	0	487	
14	0	0	0	0	443	
15	0	0	0	0	308	
0	0	0	0	0	186	
1	0	0	0	0	202	
2	0	0	0	0	241	
3	0	0	0	0	337	
4	0	0	0	0	568	
5	0	0	0	0	692	
6	0	0	0	0	655	
7	0	0	0	0	746	
8	0	0	0	0	829	
9	0	0	0	0	848	
10	0	0	0	0	881	
11	0	0	0	0	727	
12	0	0	0	0	542	
13	0	0	0	0	470	
14	0	0	0	0	288	
15	0	0	0	0	62	
0	0	0	0	0	111	
1	0	0	0	0	172	
2	0	0	0	0	431	
3	0	0	0	0	524	
4	0	0	0	0	513	
5	0	0	0	0	370	
6	0	0	0	0	345	
7	0	0	0	0	388	
8	0	0	0	0	455	
9	0	0	0	0	561	
10	0	0	0	0	897	
11	0	0	0	0	1022	
12	0	0	0	0	1019	
13	0	0	0	0	762	
14	0	0	0	0	553	
15	0	0	0	0	280	
0	0	0	0	0	161	
1	0	0	0	0	131	
2	0	0	0	0	184	
3	0	0	0	0	364	
4	0	0	0	0	388	
5	0	0	0	0	285	
6	0	0	0	0	109	
7	0	0	0	0	266	
8	0	0	0	0	660	
9	0	0	0	0	1012	
10	0	0	0	0	1022	
11	0	0	0	0	1022	
12	0	0	0	0	855	
13	0	0	0	0	474	
14	0	0	0	0	229	
15	0	0	0	0	364	
0	0	0	0	0	537	
1	0	0	0	0	583	
2	0	0	0	0	568	
3	0	0	0	0	492	
4	0	0	0	0	427	
5	0	0	0	0	420	
6	0	0	0	0	475	
7	0	0	0	0	432	
8	0	0	0	0	352	
9	0	0	0	0	428	
10	0	0	0	0	456	
11	0	0	0	0	660	
12	0	0	0	0	869	
13	0	0	0	0	874	
14	0	0	0	0	635	
15	0	0	0	0	528	
0	0	0	0	0	445	
1	0	0	0	0	169	
2	0	0	0	0	25	
3	0	0	0	0	36	
4	0	0	0	0	138	
5	0	0	0	0	328	
6	0	0	0	0	493	
7	0	0	0	0	592	
8	0	0	0	0	679	
9	0	0	0	0	699	
10	0	0	0	0	672	
11	0	0	0	0	496	
12	0	0	0	0	523	
13	0	0	0	0	702	
14	0	0	0	0	819	
15	0	0	0	0	854	
0	0	0	0	0	725	
1	0	0	0	0	397	
2	0	0	0	0	397	
3	0	0	0	0	504	
4	0	0	0	0	504	
5	0	0	0	0	481	
6	0	0	0	0	320	
7	0	0	0	0	304	
8	0	0	0	0	291	
9	0	0	0	0	345	
10	0	0	0	0	542	
11	0	0	0	0	647	
12	0	0	0	0	687	
13	0	0	0	0	874	
14	0	0	0	0	821	
15	0	0	0	0	675	
0	0	0	0	0	604	
1	0	0	0	0	552	
2	0	0	0	0	331	
3	0	0	0	0	123	
4	0	0	0	0	83	
5	0	0	0	0	110	
6	0	0	0	0	315	
7	0	0	0	0	381	
8	0	0	0	0	427	
9	0	0	0	0	406	
10	0	0	0	0	417	
11	0	0	0	0	495	
12	0	0	0	0	594	
13	0	0	0	0	859	
14	0	0	0	0	1022	
15	0	0	0	0	1022	
0	0	0	0	0	983	
1	0	0	0	0	716	
2	0	0	0	0	450	
3	0	0	0	0	254	
4	0	0	0	0	199	
5	0	0	0	0	91	
6	0	0	0	0	103	
7	0	0	0	0	108	
8	0	0	0	0	188	
9	0	0	0	0	294	
10	0	0	0	0	508	
11	0	0	0	0	815	
12	0	0	0	0	728	
13	0	0	0	0	644	
14	0	0	0	0	856	
15	0	0	0	0	907	
0	0	0	0	0	711	
1	0	0	0	0	487	
2	0	0	0	0	423	
3	0	0	0	0	358	
4	0	0	0	0	187	
5	0	0	0	0	38	
6	0	0	0	0	39	
7	0	0	0	0	193	
8	0	0	0	0	391	
9	0	0	0	0	787	
10	0	0	0	0	960	
11	0	0	0	0	847	
12	0	0	0	0	690	
13	0	0	0	0	555	
14	0	0	0	0	451	
15	0	0	0	0	632	
0	0	0	0	0	781	
1	0	0	0	0	713	
2	0	0	0	0	583	
3	0	0	0	0	420	
4	0	0	0	0	204	
5	0	0	0	0	101	
6	0	0	0	0	231	
7	0	0	0	0	315	
8	0	0	0	0	271	
9	0	0	0	0	440	
10	0	0	0	0	712	
11	0	0	0	0	843	
12	0	0	0	0	737	
13	0	0	0	0	600	
14	0	0	0	0	515	
15	0	0	0	0	536	
0	0	0	0	0	748	
1	0	0	0	0	842	
2	0	0	0	0	710	
3	0	0	0	0	569	
4	0	0	0	0	500	
5	0	0	0	0	340	
6	0	0	0	0	182	
7	0	0	0	0	181	
8	0	0	0	0	191	
9	0	0	0	0	384	
10	0	0	0	0	478	
11	0	0	0	0	539	
12	0	0	0	0	387	
13	0	0	0	0	151	
14	0	0	0	0	122	
15	0	0	0	0	345	
0	0	0	0	0	671	
1	0	0	0	0	986	
2	0	0	0	0	1022	
3	0	0	0	0	1022	
4	0	0	0	0	1022	
5	0	0	0	0	761	
6	0	0	0	0	404	
7	0	0	0	0	317	
8	0	0	0	0	228	
9	0	0	0	0	106	
10	0	0	0	0	153	
11	0	0	0	0	317	
12	0	0	0	0	393	
13	0	0	0	0	409	
14	0	0	0	0	423	
15	0	0	0	0	478	
0	0	0	0	0	569	
1	0	0	0	0	677	
2	0	0	0	0	856	
3	0	0	0	0	835	
4	0	0	0	0	655	
5	0	0	0	0	469	
6	0	0	0	0	294	
7	0	0	0	0	63	
8	0	0	0	0	32	
9	0	0	0	0	100	
10	0	0	0	0	524	
11	0	0	0	0	731	
12	0	0	0	0	785	
13	0	0	0	0	709	
14	0	0	0	0	688	
15	0	0	0	0	598	
0	0	0	0	0	555	
1	0	0	0	0	579	
2	0	0	0	0	612	
3	0	0	0	0	608	
4	0	0	0	0	587	
5	0	0	0	0	527	
6	0	0	0	0	592	
7	0	0	0	0	462	
8	0	0	0	0	332	
9	0	0	0	0	243	
10	0	0	0	0	126	
11	0	0	0	0	182	
12	0	0	0	0	337	
13	0	0	0	0	525	
14	0	0	0	0	736	
15	0	0	0	0	875	
0	0	0	0	0	832	
1	0	0	0	0	718	
2	0	0	0	0	675	
3	0	0	0	0	783	
4	0	0	0	0	710	
5	0	0	0	0	399	
6	0	0	0	0	124	
7	0	0	0	0	86	
8	0	0	0	0	41	
9	0	0	0	0	253	
10	0	0	0	0	449	
11	0	0	0	0	559	
12	0	0	0	0	641	
13	0	0	0	0	653	
14	0	0	0	0	576	
15	0	0	0	0	479	
0	0	0	0	0	446	
1	0	0	0	0	521	
2	0	0	0	0	553	
3	0	0	0	0	828	
4	0	0	0	0	954	
5	0	0	0	0	835	
6	0	0	0	0	657	
7	0	0	0	0	616	
8	0	0	0	0	397	
9	0	0	0	0	199	
10	0	0	0	0	182	
11	0	0	0	0	270	
12	0	0	0	0	275	
13	0	0	0	0	352	
14	0	0	0	0	445	
15	0	0	0	0	443	
0	0	0	0	0	454	
1	0	0	0	0	498	
2	0	0	0	0	617	
3	0	0	0	0	707	
4	0	0	0	0	776	
5	0	0	0	0	736	
6	0	0	0	0	548	
7	0	0	0	0	435	
8	0	0	0	0	501	
9	0	0	0	0	510	
10	0	0	0	0	544	
11	0	0	0	0	429	
12	0	0	0	0	327	
13	0	0	0	0	346	
14	0	0	0	0	430	
15	0	0	0	0	526	
0	0	0	0	0	513	
1	0	0	0	0	484	
2	0	0	0	0	403	
3	0	0	0	0	383	
4	0	0	0	0	515	
5	0	0	0	0	791	
6	0	0	0	0	1022	
7	0	0	0	0	812	
8	0	0	0	0	398	
9	0	0	0	0	210	
10	0	0	0	0	0	
11	0	0	0	0	0	
12	0	0	0	0	472	
13	0	0	0	0	959	
14	0	0	0	0	863	
15	0	0	0	0	499	
0	0	0	0	0	211	
1	0	0	0	0	91	
2	0	0	0	0	418	
3	0	0	0	0	816	
4	0	0	0	0	1022	
5	0	0	0	0	1022	
6	0	0	0	0	1022	
7	0	0	0	0	777	
8	0	0	0	0	460	
9	0	0	0	0	328	
10	0	0	0	0	182	
11	0	0	0	0	169	
12	0	0	0	0	198	
13	0	0	0	0	13	
14	0	0	0	0	0	
15	0	0	0	0	57	
0	0	0	0	0	289	
1	0	0	0	0	454	
2	0	0	0	0	667	
3	0	0	0	0	1017	
4	0	0	0	0	1022	
5	0	0	0	0	1022	
6	0	0	0	0	1022	
7	0	0	0	0	821	
8	0	0	0	0	502	
9	0	0	0	0	109	
10	0	0	0	0	0	
11	0	0	0	0	0	
12	0	0	0	0	127	
13	0	0	0	0	391	
14	0	0	0	0	573	
15	0	0	0	0	533	
0	0	0	0	0	394	
1	0	0	0	0	429	
2	0	0	0	0	626	
3	0	0	0	0	735	
4	0	0	0	0	868	
5	0	0	0	0	942	
6	0	0	0	0	864	
7	0	0	0	0	829	
8	0	0	0	0	757	
9	0	0	0	0	515	
10	0	0	0	0	270	
11	0	0	0	0	157	
12	0	0	0	0	27	
13	0	0	0	0	0	
14	0	0	0	0	76	
15	0	0	0	0	305	
0	0	0	0	0	457	
1	0	0	0	0	669	
2	0	0	0	0	718	
3	0	0	0	0	639	
4	0	0	0	0	518	
5	0	0	0	0	475	
6	0	0	0	0	289	
7	0	0	0	0	380	
8	0	0	0	0	614	
9	0	0	0	0	621	
10	0	0	0	0	535	
11	0	0	0	0	658	
12	0	0	0	0	792	
13	0	0	0	0	718	
14	0	0	0	0	928	
15	0	0	0	0	863	
0	0	0	0	0	604	
1	0	0	0	0	384	
2	0	0	0	0	358	
3	0	0	0	0	348	
4	0	0	0	0	390	
5	0	0	0	0	486	
6	0	0	0	0	527	
7	0	0	0	0	490	
8	0	0	0	0	614	
9	0	0	0	0	753	
10	0	0	0	0	613	
11	0	0	0	0	387	
12	0	0	0	0	290	
13	0	0	0	0	75	
14	0	0	0	0	0	
15	0	0	0	0	163	
0	0	0	0	0	206	
1	0	0	0	0	238	
2	0	0	0	0	266	
3	0	0	0	0	493	
4	0	0	0	0	684	
5	0	0	0	0	844	
6	0	0	0	0	1022	
7	0	0	0	0	1022	
8	0	0	0	0	977	
9	0	0	0	0	865	
10	0	0	0	0	671	
11	0	0	0	0	387	
12	0	0	0	0	405	
13	0	0	0	0	522	
14	0	0	0	0	393	
15	0	0	0	0	296	
0	0	0	0	0	313	
1	0	0	0	0	283	
2	0	0	0	0	195	
3	0	0	0	0	258	
4	0	0	0	0	341	
5	0	0	0	0	392	
6	0	0	0	0	557	
7	0	0	0	0	662	
8	0	0	0	0	724	
9	0	0	0	0	931	
10	0	0	0	0	988	
11	0	0	0	0	913	
12	0	0	0	0	743	
13	0	0	0	0	494	
14	0	0	0	0	307	
15	0	0	0	0	86	
0	0	0	0	0	0	
1	0	0	0	0	0	
2	0	0	0	0	294	
3	0	0	0	0	365	
4	0	0	0	0	460	
5	0	0	0	0	565	
6	0	0	0	0	638	
7	0	0	0	0	654	
8	0	0	0	0	695	
9	0	0	0	0	871	
10	0	0	0	0	1022	
11	0	0	0	0	1022	
12	0	0	0	0	708	
13	0	0	0	0	438	
14	0	0	0	0	361	
15	0	0	0	0	262	
0	0	0	0	0	227	
1	0	0	0	0	199	
2	0	0	0	0	152	
3	0	0	0	0	309	
4	0	0	0	0	492	
5	0	0	0	0	648	
6	0	0	0	0	655	
7	0	0	0	0	455	
8	0	0	0	0	351	
9	0	0	0	0	438	
10	0	0	0	0	384	
11	0	0	0	0	557	
12	0	0	0	0	843	
13	0	0	0	0	728	
14	0	0	0	0	639	
15	0	0	0	0	620	
0	0	0	0	0	592	
1	0	0	0	0	580	
2	0	0	0	0	533	
3	0	0	0	0	355	
4	0	0	0	0	228	
5	0	0	0	0	276	
6	0	0	0	0	366	
7	0	0	0	0	460	
8	0	0	0	0	573	
9	0	0	0	0	687	
10	0	0	0	0	615	
11	0	0	0	0	675	
12	0	0	0	0	731	
13	0	0	0	0	631	
14	0	0	0	0	460	
15	0	0	0	0	272	
0	0	0	0	0	71	
1	0	0	0	0	167	
2	0	0	0	0	489	
3	0	0	0	0	691	
4	0	0	0	0	545	
5	0	0	0	0	406	
6	0	0	0	0	408	
7	0	0	0	0	440	
8	0	0	0	0	552	
9	0	0	0	0	777	
10	0	0	0	0	932	
11	0	0	0	0	915	
12	0	0	0	0	958	
13	0	0	0	0	828	
14	0	0	0	0	611	
15	0	0	0	0	376	
0	0	0	0	0	266	
1	0	0	0	0	218	
2	0	0	0	0	114	
3	0	0	0	0	115	
4	0	0	0	0	135	
5	0	0	0	0	244	
6	0	0	0	0	232	
7	0	0	0	0	210	
8	0	0	0	0	272	
9	0	0	0	0	387	
10	0	0	0	0	577	
11	0	0	0	0	860	
12	0	0	0	0	1022	
13	0	0	0	0	1022	
14	0	0	0	0	1022	
15	0	0	0	0	857	
0	0	0	0	0	711	
1	0	0	0	0	665	
2	0	0	0	0	403	
3	0	0	0	0	194	
4	0	0	0	0	143	
5	0	0	0	0	116	
6	0	0	0	0	198	
7	0	0	0	0	258	
8	0	0	0	0	384	
9	0	0	0	0	488	
10	0	0	0	0	584	
11	0	0	0	0	587	
12	0	0	0	0	575	
13	0	0	0	0	694	
14	0	0	0	0	863	
15	0	0	0	0	833	
0	0	0	0	0	515	
1	0	0	0	0	388	
2	0	0	0	0	360	
3	0	0	0	0	193	
4	0	0	0	0	107	
5	0	0	0	0	210	
6	0	0	0	0	420	
7	0	0	0	0	542	
8	0	0	0	0	518	
9	0	0	0	0	457	
10	0	0	0	0	491	
11	0	0	0	0	655	
12	0	0	0	0	756	
13	0	0	0	0	604	
14	0	0	0	0	505	
15	0	0	0	0	577	
0	0	0	0	0	636	
1	0	0	0	0	608	
2	0	0	0	0	566	
3	0	0	0	0	544	
4	0	0	0	0	436	
5	0	0	0	0	399	
6	0	0	0	0	369	
7	0	0	0	0	442	
8	0	0	0	0	455	
9	0	0	0	0	544	
10	0	0	0	0	624	
11	0	0	0	0	573	
12	0	0	0	0	505	
13	0	0	0	0	462	
14	0	0	0	0	487	
15	0	0	0	0	653	
0	0	0	0	0	815	
1	0	0	0	0	676	
2	0	0	0	0	508	
3	0	0	0	0	486	
4	0	0	0	0	282	
5	0	0	0	0	303	
6	0	0	0	0	288	
7	0	0	0	0	379	
8	0	0	0	0	545	
9	0	0	0	0	576	
10	0	0	0	0	647	
11	0	0	0	0	636	
12	0	0	0	0	620	
13	0	0	0	0	489	
14	0	0	0	0	489	
15	0	0	0	0	599	
0	0	0	0	0	697	
1	0	0	0	0	604	
2	0	0	0	0	383	
3	0	0	0	0	151	
4	0	0	0	0	158	
5	0	0	0	0	122	
6	0	0	0	0	149	
7	0	0	0	0	347	
8	0	0	0	0	612	
9	0	0	0	0	748	
10	0	0	0	0	820	
11	0	0	0	0	998	
12	0	0	0	0	962	
13	0	0	0	0	814	
14	0	0	0	0	628	
15	0	0	0	0	514	
0	0	0	0	0	598	
1	0	0	0	0	696	
2	0	0	0	0	594	
3	0	0	0	0	244	
4	0	0	0	0	132	
5	0	0	0	0	179	
6	0	0	0	0	134	
7	0	0	0	0	186	
8	0	0	0	0	261	
9	0	0	0	0	369	
10	0	0	0	0	443	
11	0	0	0	0	415	
12	0	0	0	0	376	
13	0	0	0	0	407	
14	0	0	0	0	525	
15	0	0	0	0	779	
0	0	0	0	0	895	
1	0	0	0	0	1022	
2	0	0	0	0	1022	
3	0	0	0	0	761	
4	0	0	0	0	412	
5	0	0	0	0	299	
6	0	0	0	0	280	
7	0	0	0	0	376	
8	0	0	0	0	525	
9	0	0	0	0	489	
10	0	0	0	0	384	
11	0	0	0	0	424	
12	0	0	0	0	370	
13	0	0	0	0	398	
14	0	0	0	0	346	
15	0	0	0	0	532	
0	0	0	0	0	497	
1	0	0	0	0	490	
2	0	0	0	0	638	
3	0	0	0	0	704	
4	0	0	0	0	657	
5	0	0	0	0	854	
6	0	0	0	0	910	
7	0	0	0	0	662	
8	0	0	0	0	448	
9	0	0	0	0	324	
10	0	0	0	0	326	
11	0	0	0	0	249	
12	0	0	0	0	203	
13	0	0	0	0	238	
14	0	0	0	0	332	
15	0	0	0	0	371	
0	0	0	0	0	397	
1	0	0	0	0	499	
2	0	0	0	0	671	
3	0	0	0	0	839	
4	0	0	0	0	952	
5	0	0	0	0	754	
6	0	0	0	0	500	
7	0	0	0	0	398	
8	0	0	0	0	304	
9	0	0	0	0	370	
10	0	0	0	0	512	
11	0	0	0	0	553	
12	0	0	0	0	491	
13	0	0	0	0	404	
14	0	0	0	0	343	
15	0	0	0	0	259	
0	0	0	0	0	245	
1	0	0	0	0	424	
2	0	0	0	0	576	
3	0	0	0	0	787	
4	0	0	0	0	1013	
5	0	0	0	0	887	
6	0	0	0	0	670	
7	0	0	0	0	534	
8	0	0	0	0	352	
9	0	0	0	0	210	
10	0	0	0	0	286	
11	0	0	0	0	403	
12	0	0	0	0	472	
13	0	0	0	0	483	
14	0	0	0	0	506	
15	0	0	0	0	498	
0	0	0	0	0	264	
1	0	0	0	0	292	
2	0	0	0	0	475	
3	0	0	0	0	581	
4	0	0	0	0	894	
5	0	0	0	0	1021	
6	0	0	0	0	779	
7	0	0	0	0	736	
8	0	0	0	0	846	
9	0	0	0	0	624	
10	0	0	0	0	297	
11	0	0	0	0	147	
12	0	0	0	0	189	
13	0	0	0	0	250	
14	0	0	0	0	307	
15	0	0	0	0	396	
0	0	0	0	0	309	
1	0	0	0	0	341	
2	0	0	0	0	448	
3	0	0	0	0	550	
4	0	0	0	0	702	
5	0	0	0	0	734	
6	0	0	0	0	651	
7	0	0	0	0	572	
8	0	0	0	0	590	
9	0	0	0	0	615	
10	0	0	0	0	455	
11	0	0	0	0	339	
12	0	0	0	0	322	
13	0	0	0	0	234	
14	0	0	0	0	127	
15	0	0	0	0	240	
0	0	0	0	0	425	
1	0	0	0	0	591	
2	0	0	0	0	753	
3	0	0	0	0	955	
4	0	0	0	0	1022	
5	0	0	0	0	1022	
6	0	0	0	0	1022	
7	0	0	0	0	1021	
8	0	0	0	0	639	
9	0	0	0	0	321	
10	0	0	0	0	149	
11	0	0	0	0	35	
12	0	0	0	0	0	
13	0	0	0	0	0	
14	0	0	0	0	118	
15	0	0	0	0	320	
0	0	0	0	0	475	
1	0	0	0	0	558	
2	0	0	0	0	564	
3	0	0	0	0	587	
4	0	0	0	0	478	
5	0	0	0	0	419	
6	0	0	0	0	572	
7	0	0	0	0	825	
8	0	0	0	0	899	
9	0	0	0	0	906	
10	0	0	0	0	743	
11	0	0	0	0	412	
12	0	0	0	0	173	
13	0	0	0	0	17	
14	0	0	0	0	0	
15	0	0	0	0	177	
0	0	0	0	0	428	
1	0	0	0	0	675	
2	0	0	0	0	777	
3	0	0	0	0	922	
4	0	0	0	0	928	
5	0	0	0	0	855	
6	0	0	0	0	735	
7	0	0	0	0	616	
8	0	0	0	0	610	
9	0	0	0	0	488	
10	0	0	0	0	376	
11	0	0	0	0	331	
12	0	0	0	0	211	
13	0	0	0	0	117	
14	0	0	0	0	172	
15	0	0	0	0	295	
0	0	0	0	0	409	
1	0	0	0	0	415	
2	0	0	0	0	409	
3	0	0	0	0	433	
4	0	0	0	0	497	
5	0	0	0	0	426	
6	0	0	0	0	448	
7	0	0	0	0	829	
8	0	0	0	0	1022	
9	0	0	0	0	1022	
10	0	0	0	0	1010	
11	0	0	0	0	720	
12	0	0	0	0	457	
13	0	0	0	0	219	
14	0	0	0	0	102	
15	0	0	0	0	99	
0	0	0	0	0	222	
1	0	0	0	0	227	
2	0	0	0	0	142	
3	0	0	0	0	150	
4	0	0	0	0	134	
5	0	0	0	0	205	
6	0	0	0	0	713	
7	0	0	0	0	1022	
8	0	0	0	0	1023	
9	0	0	0	0	1022	
10	0	0	0	0	1022	
11	0	0	0	0	606	
12	0	0	0	0	291	
13	0	0	0	0	127	
14	0	0	0	0	0	
15	0	0	0	0	54	
0	0	0	0	0	133	
1	0	0	0	0	194	
2	0	0	0	0	229	
3	0	0	0	0	363	
4	0	0	0	0	386	
5	0	0	0	0	478	
6	0	0	0	0	588	
7	0	0	0	0	704	
8	0	0	0	0	741	
9	0	0	0	0	891	
10	0	0	0	0	871	
11	0	0	0	0	560	
12	0	0	0	0	388	
13	0	0	0	0	296	
14	0	0	0	0	265	
15	0	0	0	0	345	
0	0	0	0	0	414	
1	0	0	0	0	445	
2	0	0	0	0	543	
3	0	0	0	0	544	
4	0	0	0	0	487	
5	0	0	0	0	396	
6	0	0	0	0	434	
7	0	0	0	0	458	
8	0	0	0	0	482	
9	0	0	0	0	695	
10	0	0	0	0	797	
11	0	0	0	0	620	
12	0	0	0	0	328	
13	0	0	0	0	283	
14	0	0	0	0	343	
15	0	0	0	0	481	
0	0	0	0	0	649	
1	0	0	0	0	668	
2	0	0	0	0	561	
3	0	0	0	0	626	
4	0	0	0	0	727	
5	0	0	0	0	791	
6	0	0	0	0	670	
7	0	0	0	0	527	
8	0	0	0	0	427	
9	0	0	0	0	420	
10	0	0	0	0	432	
11	0	0	0	0	488	
12	0	0	0	0	423	
13	0	0	0	0	279	
14	0	0	0	0	260	
15	0	0	0	0	194	
0	0	0	0	0	176	
1	0	0	0	0	391	
2	0	0	0	0	701	
3	0	0	0	0	800	
4	0	0	0	0	776	
5	0	0	0	0	846	
6	0	0	0	0	812	
7	0	0	0	0	678	
8	0	0	0	0	500	
9	0	0	0	0	296	
10	0	0	0	0	244	
11	0	0	0	0	442	
12	0	0	0	0	670	
13	0	0	0	0	597	
14	0	0	0	0	698	
15	0	0	0	0	756	
0	0	0	0	0	532	
1	0	0	0	0	321	
2	0	0	0	0	246	
3	0	0	0	0	44	
4	0	0	0	0	58	
5	0	0	0	0	195	
6	0	0	0	0	352	
7	0	0	0	0	560	
8	0	0	0	0	728	
9	0	0	0	0	792	
10	0	0	0	0	777	
11	0	0	0	0	876	
12	0	0	0	0	967	
13	0	0	0	0	863	
14	0	0	0	0	595	
15	0	0	0	0	412	
0	0	0	0	0	324	
1	0	0	0	0	119	
2	0	0	0	0	3	
3	0	0	0	0	0	
4	0	0	0	0	97	
5	0	0	0	0	201	
6	0	0	0	0	428	
7	0	0	0	0	791	
8	0	0	0	0	1022	
9	0	0	0	0	1022	
10	0	0	0	0	813	
11	0	0	0	0	552	
12	0	0	0	0	575	
13	0	0	0	0	654	
14	0	0	0	0	711	
15	0	0	0	0	527	
0	0	0	0	0	265	
1	0	0	0	0	39	
2	0	0	0	0	0	
3	0	0	0	0	0	
4	0	0	0	0	152	
5	0	0	0	0	451	
6	0	0	0	0	656	
7	0	0	0	0	771	
8	0	0	0	0	829	
9	0	0	0	0	933	
10	0	0	0	0	916	
11	0	0	0	0	719	
12	0	0	0	0	687	
13	0	0	0	0	845	
14	0	0	0	0	859	
15	0	0	0	0	659	
0	0	0	0	0	468	
1	0	0	0	0	382	
2	0	0	0	0	255	
3	0	0	0	0	107	
4	0	0	0	0	148	
5	0	0	0	0	235	
6	0	0	0	0	230	
7	0	0	0	0	261	
8	0	0	0	0	294	
9	0	0	0	0	280	
10	0	0	0	0	371	
11	0	0	0	0	664	
12	0	0	0	0	870	
13	0	0	0	0	894	
14	0	0	0	0	817	
15	0	0	0	0	734	
0	0	0	0	0	501	
1	0	0	0	0	460	
2	0	0	0	0	367	
3	0	0	0	0	325	
4	0	0	0	0	378	
5	0	0	0	0	469	
6	0	0	0	0	484	
7	0	0	0	0	511	
8	0	0	0	0	467	
9	0	0	0	0	536	
10	0	0	0	0	596	
11	0	0	0	0	552	
12	0	0	0	0	477	
13	0	0	0	0	427	
14	0	0	0	0	513	
15	0	0	0	0	721	
0	0	0	0	0	734	
1	0	0	0	0	578	
2	0	0	0	0	668	
3	0	0	0	0	478	
4	0	0	0	0	83	
5	0	0	0	0	67	
6	0	0	0	0	397	
7	0	0	0	0	718	
8	0	0	0	0	649	
9	0	0	0	0	645	
10	0	0	0	0	633	
11	0	0	0	0	702	
12	0	0	0	0	680	
13	0	0	0	0	609	
14	0	0	0	0	639	
15	0	0	0	0	717	
0	0	0	0	0	734	
1	0	0	0	0	619	
2	0	0	0	0	489	
3	0	0	0	0	521	
4	0	0	0	0	396	
5	0	0	0	0	142	
6	0	0	0	0	70	
7	0	0	0	0	56	
8	0	0	0	0	208	
9	0	0	0	0	321	
10	0	0	0	0	398	
11	0	0	0	0	395	
12	0	0	0	0	371	
13	0	0	0	0	422	
14	0	0	0	0	391	
15	0	0	0	0	618	
0	0	0	0	0	899	
1	0	0	0	0	1022	
2	0	0	0	0	794	
3	0	0	0	0	670	
4	0	0	0	0	780	
5	0	0	0	0	862	
6	0	0	0	0	612	
7	0	0	0	0	441	
8	0	0	0	0	242	
9	0	0	0	0	185	
10	0	0	0	0	162	
11	0	0	0	0	156	
12	0	0	0	0	258	
13	0	0	0	0	410	
14	0	0	0	0	500	
15	0	0	0	0	630	
0	0	0	0	0	791	
1	0	0	0	0	781	
2	0	0	0	0	610	
3	0	0	0	0	386	
4	0	0	0	0	462	
5	0	0	0	0	490	
6	0	0	0	0	578	
7	0	0	0	0	733	
8	0	0	0	0	683	
9	0	0	0	0	523	
10	0	0	0	0	480	
11	0	0	0	0	407	
12	0	0	0	0	303	
13	0	0	0	0	359	
14	0	0	0	0	560	
15	0	0	0	0	580	
0	0	0	0	0	500	
1	0	0	0	0	642	
2	0	0	0	0	635	
3	0	0	0	0	400	
4	0	0	0	0	127	
5	0	0	0	0	195	
6	0	0	0	0	445	
7	0	0	0	0	582	
8	0	0	0	0	787	
9	0	0	0	0	911	
10	0	0	0	0	889	
11	0	0	0	0	676	
12	0	0	0	0	483	
13	0	0	0	0	443	
14	0	0	0	0	395	
15	0	0	0	0	387	
0	0	0	0	0	437	
1	0	0	0	0	475	
2	0	0	0	0	639	
3	0	0	0	0	768	
4	0	0	0	0	704	
5	0	0	0	0	636	
6	0	0	0	0	476	
7	0	0	0	0	167	
8	0	0	0	0	36	
9	0	0	0	0	25	
10	0	0	0	0	52	
11	0	0	0	0	139	
12	0	0	0	0	263	
13	0	0	0	0	542	
14	0	0	0	0	815	
15	0	0	0	0	884	
0	0	0	0	0	799	
1	0	0	0	0	637	
2	0	0	0	0	630	
3	0	0	0	0	772	
4	0	0	0	0	873	
5	0	0	0	0	759	
6	0	0	0	0	646	
7	0	0	0	0	553	
8	0	0	0	0	460	
9	0	0	0	0	381	
10	0	0	0	0	360	
11	0	0	0	0	182	
12	0	0	0	0	105	
13	0	0	0	0	143	
14	0	0	0	0	221	
15	0	0	0	0	329	
0	0	0	0	0	569	
1	0	0	0	0	774	
2	0	0	0	0	658	
3	0	0	0	0	711	
4	0	0	0	0	648	
5	0	0	0	0	469	
6	0	0	0	0	391	
7	0	0	0	0	534	
8	0	0	0	0	638	
9	0	0	0	0	649	
10	0	0	0	0	551	
11	0	0	0	0	580	
12	0	0	0	0	678	
13	0	0	0	0	614	
14	0	0	0	0	596	
15	0	0	0	0	611	
0	0	0	0	0	503	
1	0	0	0	0	465	
2	0	0	0	0	452	
3	0	0	0	0	487	
4	0	0	0	0	783	
5	0	0	0	0	880	
6	0	0	0	0	587	
7	0	0	0	0	373	
8	0	0	0	0	245	
9	0	0	0	0	120	
10	0	0	0	0	52	
11	0	0	0	0	121	
12	0	0	0	0	211	
13	0	0	0	0	384	
14	0	0	0	0	424	
15	0	0	0	0	515	
0	0	0	0	0	668	
1	0	0	0	0	663	
2	0	0	0	0	684	
3	0	0	0	0	730	
4	0	0	0	0	693	
5	0	0	0	0	830	
6	0	0	0	0	748	
7	0	0	0	0	502	
8	0	0	0	0	501	
9	0	0	0	0	584	
10	0	0	0	0	474	
11	0	0	0	0	393	
12	0	0	0	0	196	
13	0	0	0	0	99	
14	0	0	0	0	283	
15	0	0	0	0	402	
0	0	0	0	0	608	
1	0	0	0	0	776	
2	0	0	0	0	688	
3	0	0	0	0	483	
4	0	0	0	0	294	
5	0	0	0	0	358	
6	0	0	0	0	735	
7	0	0	0	0	794	
8	0	0	0	0	752	
9	0	0	0	0	715	
10	0	0	0	0	689	
11	0	0	0	0	414	
12	0	0	0	0	282	
13	0	0	0	0	208	
14	0	0	0	0	140	
15	0	0	0	0	162	
0	0	0	0	0	394	
1	0	0	0	0	687	
2	0	0	0	0	777	
3	0	0	0	0	827	
4	0	0	0	0	874	
5	0	0	0	0	795	
6	0	0	0	0	831	
7	0	0	0	0	783	
8	0	0	0	0	505	
9	0	0	0	0	248	
10	0	0	0	0	199	
11	0	0	0	0	81	
12	0	0	0	0	0	
13	0	0	0	0	119	
14	0	0	0	0	376	
15	0	0	0	0	547	
0	0	0	0	0	488	
1	0	0	0	0	580	
2	0	0	0	0	473	
3	0	0	0	0	381	
4	0	0	0	0	420	
5	0	0	0	0	409	
6	0	0	0	0	494	
7	0	0	0	0	812	
8	0	0	0	0	998	
9	0	0	0	0	1022	
10	0	0	0	0	990	
11	0	0	0	0	788	
12	0	0	0	0	528	
13	0	0	0	0	391	
14	0	0	0	0	396	
15	0	0	0	0	290	
0	0	0	0	0	99	
1	0	0	0	0	19	
2	0	0	0	0	128	
3	0	0	0	0	276	
4	0	0	0	0	612	
5	0	0	0	0	923	
6	0	0	0	0	988	
7	0	0	0	0	933	
8	0	0	0	0	843	
9	0	0	0	0	681	
10	0	0	0	0	505	
11	0	0	0	0	403	
12	0	0	0	0	426	
13	0	0	0	0	232	
14	0	0	0	0	220	
15	0	0	0	0	298	
0	0	0	0	0	269	
1	0	0	0	0	302	
2	0	0	0	0	282	
3	0	0	0	0	248	
4	0	0	0	0	290	
5	0	0	0	0	492	
6	0	0	0	0	645	
7	0	0	0	0	680	
8	0	0	0	0	856	
9	0	0	0	0	974	
10	0	0	0	0	933	
11	0	0	0	0	632	
12	0	0	0	0	487	
13	0	0	0	0	398	
14	0	0	0	0	341	
15	0	0	0	0	277	
0	0	0	0	0	348	
1	0	0	0	0	461	
2	0	0	0	0	481	
3	0	0	0	0	487	
4	0	0	0	0	488	
5	0	0	0	0	518	
6	0	0	0	0	631	
7	0	0	0	0	640	
8	0	0	0	0	515	
9	0	0	0	0	595	
10	0	0	0	0	583	
11	0	0	0	0	395	
12	0	0	0	0	380	
13	0	0	0	0	424	
14	0	0	0	0	422	
15	0	0	0	0	464	
0	0	0	0	0	609	
1	0	0	0	0	624	
2	0	0	0	0	647	
3	0	0	0	0	490	
4	0	0	0	0	321	
5	0	0	0	0	257	
6	0	0	0	0	313	
7	0	0	0	0	498	
8	0	0	0	0	686	
9	0	0	0	0	873	
10	0	0	0	0	1017	
11	0	0	0	0	1015	
12	0	0	0	0	757	
13	0	0	0	0	442	
14	0	0	0	0	206	
15	0	0	0	0	57	
0	0	0	0	0	55	
1	0	0	0	0	92	
2	0	0	0	0	148	
3	0	0	0	0	265	
4	0	0	0	0	348	
5	0	0	0	0	423	
6	0	0	0	0	387	
7	0	0	0	0	580	
8	0	0	0	0	989	
9	0	0	0	0	1022	
10	0	0	0	0	945	
11	0	0	0	0	817	
12	0	0	0	0	594	
13	0	0	0	0	448	
14	0	0	0	0	487	
15	0	0	0	0	492	
0	0	0	0	0	370	
1	0	0	0	0	352	
2	0	0	0	0	360	
3	0	0	0	0	348	
4	0	0	0	0	412	
5	0	0	0	0	522	
6	0	0	0	0	526	
7	0	0	0	0	580	
8	0	0	0	0	683	
9	0	0	0	0	616	
10	0	0	0	0	414	
11	0	0	0	0	454	
12	0	0	0	0	693	
13	0	0	0	0	724	
14	0	0	0	0	361	
15	0	0	0	0	155	
0	0	0	0	0	12	
1	0	0	0	0	117	
2	0	0	0	0	155	
3	0	0	0	0	273	
4	0	0	0	0	650	
5	0	0	0	0	1009	
6	0	0	0	0	1021	
7	0	0	0	0	916	
8	0	0	0	0	789	
9	0	0	0	0	731	
10	0	0	0	0	731	
11	0	0	0	0	604	
12	0	0	0	0	644	
13	0	0	0	0	651	
14	0	0	0	0	609	
15	0	0	0	0	535	
0	0	0	0	0	355	
1	0	0	0	0	151	
2	0	0	0	0	151	
3	0	0	0	0	245	
4	0	0	0	0	273	
5	0	0	0	0	231	
6	0	0	0	0	202	
7	0	0	0	0	258	
8	0	0	0	0	358	
9	0	0	0	0	471	
10	0	0	0	0	555	
11	0	0	0	0	605	
12	0	0	0	0	704	
13	0	0	0	0	910	
14	0	0	0	0	793	
15	0	0	0	0	447	
0	0	0	0	0	437	
1	0	0	0	0	684	
2	0	0	0	0	568	
3	0	0	0	0	329	
4	0	0	0	0	147	
5	0	0	0	0	214	
6	0	0	0	0	518	
7	0	0	0	0	851	
8	0	0	0	0	1022	
9	0	0	0	0	1019	
10	0	0	0	0	736	
11	0	0	0	0	417	
12	0	0	0	0	293	
13	0	0	0	0	478	
14	0	0	0	0	679	
15	0	0	0	0	686	
0	0	0	0	0	572	
1	0	0	0	0	478	
2	0	0	0	0	266	
3	0	0	0	0	58	
4	0	0	0	0	127	
5	0	0	0	0	215	
6	0	0	0	0	457	
7	0	0	0	0	587	
8	0	0	0	0	568	
9	0	0	0	0	521	
10	0	0	0	0	500	
11	0	0	0	0	534	
12	0	0	0	0	611	
13	0	0	0	0	656	
14	0	0	0	0	665	
15	0	0	0	0	620	
0	0	0	0	0	504	
1	0	0	0	0	514	
2	0	0	0	0	560	
3	0	0	0	0	598	
4	0	0	0	0	701	
5	0	0	0	0	638	
6	0	0	0	0	409	
7	0	0	0	0	353	
8	0	0	0	0	307	
9	0	0	0	0	282	
10	0	0	0	0	353	
11	0	0	0	0	379	
12	0	0	0	0	419	
13	0	0	0	0	467	
14	0	0	0	0	645	
15	0	0	0	0	868	
0	0	0	0	0	961	
1	0	0	0	0	873	
2	0	0	0	0	696	
3	0	0	0	0	539	
4	0	0	0	0	196	
5	0	0	0	0	69	
6	0	0	0	0	33	
7	0	0	0	0	97	
8	0	0	0	0	254	
9	0	0	0	0	240	
10	0	0	0	0	244	
11	0	0	0	0	452	
12	0	0	0	0	692	
13	0	0	0	0	978	
14	0	0	0	0	1022	
15	0	0	0	0	1022	
0	0	0	0	0	934	
1	0	0	0	0	702	
2	0	0	0	0	432	
3	0	0	0	0	364	
4	0	0	0	0	378	
5	0	0	0	0	216	
6	0	0	0	0	212	
7	0	0	0	0	188	
8	0	0	0	0	203	
9	0	0	0	0	131	
10	0	0	0	0	217	
11	0	0	0	0	520	
12	0	0	0	0	787	
13	0	0	0	0	826	
14	0	0	0	0	767	
15	0	0	0	0	779	
0	0	0	0	0	1004	
1	0	0	0	0	1022	
2	0	0	0	0	792	
3	0	0	0	0	481	
4	0	0	0	0	310	
5	0	0	0	0	115	
6	0	0	0	0	177	
7	0	0	0	0	204	
8	0	0	0	0	266	
9	0	0	0	0	369	
10	0	0	0	0	432	
11	0	0	0	0	533	
12	0	0	0	0	606	
13	0	0	0	0	653	
14	0	0	0	0	620	
15	0	0	0	0	481	
0	0	0	0	0	392	
1	0	0	0	0	479	
2	0	0	0	0	494	
3	0	0	0	0	446	
4	0	0	0	0	566	
5	0	0	0	0	718	
6	0	0	0	0	565	
7	0	0	0	0	321	
8	0	0	0	0	214	
9	0	0	0	0	262	
10	0	0	0	0	386	
11	0	0	0	0	585	
12	0	0	0	0	788	
13	0	0	0	0	916	
14	0	0	0	0	850	
15	0	0	0	0	725	
0	0	0	0	0	583	
1	0	0	0	0	626	
2	0	0	0	0	593	
3	0	0	0	0	451	
4	0	0	0	0	118	
5	0	0	0	0	128	
6	0	0	0	0	204	
7	0	0	0	0	266	
8	0	0	0	0	419	
9	0	0	0	0	564	
10	0	0	0	0	637	
11	0	0	0	0	626	
12	0	0	0	0	692	
13	0	0	0	0	735	
14	0	0	0	0	659	
15	0	0	0	0	619	
0	0	0	0	0	568	
1	0	0	0	0	489	
2	0	0	0	0	595	
3	0	0	0	0	711	
4	0	0	0	0	705	
5	0	0	0	0	505	
6	0	0	0	0	480	
7	0	0	0	0	371	
8	0	0	0	0	185	
9	0	0	0	0	125	
10	0	0	0	0	120	
11	0	0	0	0	366	
12	0	0	0	0	547	
13	0	0	0	0	731	
14	0	0	0	0	722	
15	0	0	0	0	601	
0	0	0	0	0	536	
1	0	0	0	0	512	
2	0	0	0	0	524	
3	0	0	0	0	603	
4	0	0	0	0	511	
5	0	0	0	0	225	
6	0	0	0	0	167	
7	0	0	0	0	408	
8	0	0	0	0	563	
9	0	0	0	0	621	
10	0	0	0	0	637	
11	0	0	0	0	607	
12	0	0	0	0	670	
13	0	0	0	0	637	
14	0	0	0	0	570	
15	0	0	0	0	467	
0	0	0	0	0	497	
1	0	0	0	0	534	
2	0	0	0	0	515	
3	0	0	0	0	646	
4	0	0	0	0	671	
5	0	0	0	0	637	
6	0	0	0	0	553	
7	0	0	0	0	567	
8	0	0	0	0	506	
9	0	0	0	0	232	
10	0	0	0	0	106	
11	0	0	0	0	46	
12	0	0	0	0	74	
13	0	0	0	0	311	
14	0	0	0	0	651	
15	0	0	0	0	822	
0	0	0	0	0	754	
1	0	0	0	0	652	
2	0	0	0	0	601	
3	0	0	0	0	729	
4	0	0	0	0	715	
5	0	0	0	0	644	
6	0	0	0	0	515	
7	0	0	0	0	363	
8	0	0	0	0	383	
9	0	0	0	0	545	
10	0	0	0	0	559	
11	0	0	0	0	526	
12	0	0	0	0	237	
13	0	0	0	0	129	
14	0	0	0	0	295	
15	0	0	0	0	518	
0	0	0	0	0	626	
1	0	0	0	0	614	
2	0	0	0	0	559	
3	0	0	0	0	449	
4	0	0	0	0	317	
5	0	0	0	0	463	
6	0	0	0	0	573	
7	0	0	0	0	652	
8	0	0	0	0	801	
9	0	0	0	0	962	
10	0	0	0	0	842	
11	0	0	0	0	749	
12	0	0	0	0	747	
13	0	0	0	0	507	
14	0	0	0	0	385	
15	0	0	0	0	270	
0	0	0	0	0	260	
1	0	0	0	0	275	
2	0	0	0	0	343	
3	0	0	0	0	489	
4	0	0	0	0	476	
5	0	0	0	0	438	
6	0	0	0	0	644	
7	0	0	0	0	686	
8	0	0	0	0	503	
9	0	0	0	0	423	
10	0	0	0	0	295	
11	0	0	0	0	47	
12	0	0	0	0	51	
13	0	0	0	0	267	
14	0	0	0	0	583	
15	0	0	0	0	844	
0	0	0	0	0	898	
1	0	0	0	0	734	
2	0	0	0	0	526	
3	0	0	0	0	455	
4	0	0	0	0	469	
5	0	0	0	0	568	
6	0	0	0	0	799	
7	0	0	0	0	834	
8	0	0	0	0	750	
9	0	0	0	0	529	
10	0	0	0	0	472	
11	0	0	0	0	485	
12	0	0	0	0	237	
13	0	0	0	0	0	
14	0	0	0	0	0	
15	0	0	0	0	201	
0	0	0	0	0	135	
1	0	0	0	0	289	
2	0	0	0	0	548	
3	0	0	0	0	693	
4	0	0	0	0	831	
5	0	0	0	0	1022	
6	0	0	0	0	1022	
7	0	0	0	0	1023	
8	0	0	0	0	1022	
9	0	0	0	0	668	
10	0	0	0	0	378	
11	0	0	0	0	311	
12	0	0	0	0	249	
13	0	0	0	0	166	
14	0	0	0	0	119	
15	0	0	0	0	129	
0	0	0	0	0	239	
1	0	0	0	0	331	
2	0	0	0	0	466	
3	0	0	0	0	534	
4	0	0	0	0	611	
5	0	0	0	0	512	
6	0	0	0	0	489	
7	0	0	0	0	481	
8	0	0	0	0	547	
9	0	0	0	0	599	
10	0	0	0	0	581	
11	0	0	0	0	503	
12	0	0	0	0	539	
13	0	0	0	0	410	
14	0	0	0	0	378	
15	0	0	0	0	360	
0	0	0	0	0	285	
1	0	0	0	0	423	
2	0	0	0	0	584	
3	0	0	0	0	655	
4	0	0	0	0	682	
5	0	0	0	0	698	
6	0	0	0	0	659	
7	0	0	0	0	687	
8	0	0	0	0	810	
9	0	0	0	0	903	
10	0	0	0	0	791	
11	0	0	0	0	499	
12	0	0	0	0	373	
13	0	0	0	0	372	
14	0	0	0	0	252	
15	0	0	0	0	146	
0	0	0	0	0	83	
1	0	0	0	0	118	
2	0	0	0	0	275	
3	0	0	0	0	408	
4	0	0	0	0	510	
5	0	0	0	0	531	
6	0	0	0	0	576	
7	0	0	0	0	654	
8	0	0	0	0	699	
9	0	0	0	0	665	
10	0	0	0	0	735	
11	0	0	0	0	671	
12	0	0	0	0	520	
13	0	0	0	0	663	
14	0	0	0	0	765	
15	0	0	0	0	447	
0	0	0	0	0	294	
1	0	0	0	0	152	
2	0	0	0	0	180	
3	0	0	0	0	359	
4	0	0	0	0	551	
5	0	0	0	0	712	
6	0	0	0	0	765	
7	0	0	0	0	748	
8	0	0	0	0	641	
9	0	0	0	0	632	
10	0	0	0	0	787	
11	0	0	0	0	775	
12	0	0	0	0	531	
13	0	0	0	0	374	
14	0	0	0	0	265	
15	0	0	0	0	175	
0	0	0	0	0	178	
1	0	0	0	0	300	
2	0	0	0	0	444	
3	0	0	0	0	494	
4	0	0	0	0	402	
5	0	0	0	0	279	
6	0	0	0	0	291	
7	0	0	0	0	329	
8	0	0	0	0	448	
9	0	0	0	0	728	
10	0	0	0	0	879	
11	0	0	0	0	1022	
12	0	0	0	0	1022	
13	0	0	0	0	898	
14	0	0	0	0	543	
15	0	0	0	0	298	
0	0	0	0	0	228	
1	0	0	0	0	47	
2	0	0	0	0	0	
3	0	0	0	0	116	
4	0	0	0	0	392	
5	0	0	0	0	658	
6	0	0	0	0	750	
7	0	0	0	0	874	
8	0	0	0	0	896	
9	0	0	0	0	827	
10	0	0	0	0	723	
11	0	0	0	0	691	
12	0	0	0	0	711	
13	0	0	0	0	579	
14	0	0	0	0	308	
15	0	0	0	0	174	
0	0	0	0	0	175	
1	0	0	0	0	113	
2	0	0	0	0	175	
3	0	0	0	0	254	
4	0	0	0	0	415	
5	0	0	0	0	507	
6	0	0	0	0	583	
7	0	0	0	0	496	
8	0	0	0	0	438	
9	0	0	0	0	434	
10	0	0	0	0	423	
11	0	0	0	0	485	
12	0	0	0	0	843	
13	0	0	0	0	1022	
14	0	0	0	0	1015	
15	0	0	0	0	695	
0	0	0	0	0	558	
1	0	0	0	0	516	
2	0	0	0	0	308	
3	0	0	0	0	138	
4	0	0	0	0	115	
5	0	0	0	0	235	
6	0	0	0	0	344	
7	0	0	0	0	449	
8	0	0	0	0	467	
9	0	0	0	0	453	
10	0	0	0	0	534	
11	0	0	0	0	597	
12	0	0	0	0	735	
13	0	0	0	0	909	
14	0	0	0	0	904	
15	0	0	0	0	698	
0	0	0	0	0	604	
1	0	0	0	0	509	
2	0	0	0	0	314	
3	0	0	0	0	261	
4	0	0	0	0	344	
5	0	0	0	0	398	
6	0	0	0	0	573	
7	0	0	0	0	638	
8	0	0	0	0	593	
9	0	0	0	0	481	
10	0	0	0	0	426	
11	0	0	0	0	429	
12	0	0	0	0	390	
13	0	0	0	0	617	
14	0	0	0	0	934	
15	0	0	0	0	850	
0	0	0	0	0	506	
1	0	0	0	0	434	
2	0	0	0	0	385	
3	0	0	0	0	140	
4	0	0	0	0	37	
5	0	0	0	0	48	
6	0	0	0	0	178	
7	0	0	0	0	292	
8	0	0	0	0	398	
9	0	0	0	0	529	
10	0	0	0	0	644	
11	0	0	0	0	618	
12	0	0	0	0	458	
13	0	0	0	0	646	
14	0	0	0	0	1022	
15	0	0	0	0	1022	
0	0	0	0	0	1022	
1	0	0	0	0	665	
2	0	0	0	0	393	
3	0	0	0	0	338	
4	0	0	0	0	340	
5	0	0	0	0	408	
6	0	0	0	0	443	
7	0	0	0	0	504	
8	0	0	0	0	423	
9	0	0	0	0	408	
10	0	0	0	0	391	
11	0	0	0	0	400	
12	0	0	0	0	423	
13	0	0	0	0	430	
14	0	0	0	0	410	
15	0	0	0	0	535	
0	0	0	0	0	635	
1	0	0	0	0	530	
2	0	0	0	0	440	
3	0	0	0	0	375	
4	0	0	0	0	182	
5	0	0	0	0	133	
6	0	0	0	0	259	
7	0	0	0	0	425	
8	0	0	0	0	445	
9	0	0	0	0	504	
10	0	0	0	0	689	
11	0	0	0	0	652	
12	0	0	0	0	450	
13	0	0	0	0	402	
14	0	0	0	0	432	
15	0	0	0	0	639	
0	0	0	0	0	1022	
1	0	0	0	0	1022	
2	0	0	0	0	1022	
3	0	0	0	0	822	
4	0	0	0	0	593	
5	0	0	0	0	255	
6	0	0	0	0	27	
7	0	0	0	0	74	
8	0	0	0	0	233	
9	0	0	0	0	372	
10	0	0	0	0	435	
11	0	0	0	0	428	
12	0	0	0	0	415	
13	0	0	0	0	506	
14	0	0	0	0	641	
15	0	0	0	0	651	
0	0	0	0	0	760	
1	0	0	0	0	625	
2	0	0	0	0	450	
3	0	0	0	0	46	
4	0	0	0	0	0	
5	0	0	0	0	62	
6	0	0	0	0	183	
7	0	0	0	0	523	
8	0	0	0	0	765	
9	0	0	0	0	897	
10	0	0	0	0	849	
11	0	0	0	0	561	
12	0	0	0	0	409	
13	0	0	0	0	378	
14	0	0	0	0	455	
15	0	0	0	0	702	
0	0	0	0	0	827	
1	0	0	0	0	1022	
2	0	0	0	0	1022	
3	0	0	0	0	868	
4	0	0	0	0	682	
5	0	0	0	0	450	
6	0	0	0	0	91	
7	0	0	0	0	33	
8	0	0	0	0	120	
9	0	0	0	0	113	
10	0	0	0	0	271	
11	0	0	0	0	420	
12	0	0	0	0	419	
13	0	0	0	0	341	
14	0	0	0	0	410	
15	0	0	0	0	531	
0	0	0	0	0	766	
1	0	0	0	0	1003	
2	0	0	0	0	1022	
3	0	0	0	0	906	
4	0	0	0	0	369	
5	0	0	0	0	114	
6	0	0	0	0	131	
7	0	0	0	0	145	
8	0	0	0	0	231	
9	0	0	0	0	338	
10	0	0	0	0	440	
11	0	0	0	0	524	
12	0	0	0	0	514	
13	0	0	0	0	544	
14	0	0	0	0	564	
15	0	0	0	0	680	
0	0	0	0	0	838	
1	0	0	0	0	791	
2	0	0	0	0	755	
3	0	0	0	0	755	
4	0	0	0	0	575	
5	0	0	0	0	349	
6	0	0	0	0	344	
7	0	0	0	0	385	
8	0	0	0	0	352	
9	0	0	0	0	465	
10	0	0	0	0	558	
11	0	0	0	0	581	
12	0	0	0	0	487	
13	0	0	0	0	456	
14	0	0	0	0	456	
15	0	0	0	0	373	
0	0	0	0	0	351	
1	0	0	0	0	474	
2	0	0	0	0	548	
3	0	0	0	0	775	
4	0	0	0	0	979	
5	0	0	0	0	854	
6	0	0	0	0	536	
7	0	0	0	0	319	
8	0	0	0	0	188	
9	0	0	0	0	52	
10	0	0	0	0	0	
11	0	0	0	0	0	
12	0	0	0	0	0	
13	0	0	0	0	186	
14	0	0	0	0	547	
15	0	0	0	0	991	
0	0	0	0	0	1022	
1	0	0	0	0	1022	
2	0	0	0	0	1023	
3	0	0	0	0	971	
4	0	0	0	0	863	
5	0	0	0	0	765	
6	0	0	0	0	524	
7	0	0	0	0	316	
8	0	0	0	0	223	
9	0	0	0	0	78	
10	0	0	0	0	15	
11	0	0	0	0	79	
12	0	0	0	0	147	
13	0	0	0	0	215	
14	0	0	0	0	310	
15	0	0	0	0	502	
0	0	0	0	0	601	
1	0	0	0	0	505	
2	0	0	0	0	553	
3	0	0	0	0	559	
4	0	0	0	0	605	
5	0	0	0	0	874	
6	0	0	0	0	1022	
7	0	0	0	0	973	
8	0	0	0	0	712	
9	0	0	0	0	501	
10	0	0	0	0	255	
11	0	0	0	0	64	
12	0	0	0	0	79	
13	0	0	0	0	230	
14	0	0	0	0	382	
15	0	0	0	0	525	
0	0	0	0	0	652	
1	0	0	0	0	610	
2	0	0	0	0	508	
3	0	0	0	0	492	
4	0	0	0	0	556	
5	0	0	0	0	765	
6	0	0	0	0	773	
7	0	0	0	0	649	
8	0	0	0	0	540	
9	0	0	0	0	604	
10	0	0	0	0	677	
11	0	0	0	0	537	
12	0	0	0	0	439	
13	0	0	0	0	345	
14	0	0	0	0	321	
15	0	0	0	0	237	
0	0	0	0	0	297	
1	0	0	0	0	343	
2	0	0	0	0	545	
3	0	0	0	0	692	
4	0	0	0	0	634	
5	0	0	0	0	508	
6	0	0	0	0	562	
7	0	0	0	0	663	
8	0	0	0	0	568	
9	0	0	0	0	481	
10	0	0	0	0	523	
11	0	0	0	0	468	
12	0	0	0	0	436	
13	0	0	0	0	357	
14	0	0	0	0	296	
15	0	0	0	0	347	
0	0	0	0	0	332	
1	0	0	0	0	482	
2	0	0	0	0	597	
3	0	0	0	0	617	
4	0	0	0	0	627	
5	0	0	0	0	631	
6	0	0	0	0	693	
7	0	0	0	0	799	
8	0	0	0	0	809	
9	0	0	0	0	700	
10	0	0	0	0	558	
11	0	0	0	0	498	
12	0	0	0	0	305	
13	0	0	0	0	115	
14	0	0	0	0	95	
15	0	0	0	0	115	
0	0	0	0	0	275	
1	0	0	0	0	442	
2	0	0	0	0	567	
3	0	0	0	0	632	
4	0	0	0	0	619	
5	0	0	0	0	630	
6	0	0	0	0	629	
7	0	0	0	0	725	
8	0	0	0	0	817	
9	0	0	0	0	759	
10	0	0	0	0	556	
11	0	0	0	0	474	
12	0	0	0	0	267	
13	0	0	0	0	30	
14	0	0	0	0	128	
15	0	0	0	0	247	
0	0	0	0	0	401	
1	0	0	0	0	635	
2	0	0	0	0	657	
3	0	0	0	0	477	
4	0	0	0	0	529	
5	0	0	0	0	713	
6	0	0	0	0	975	
7	0	0	0	0	890	
8	0	0	0	0	768	
9	0	0	0	0	725	
10	0	0	0	0	711	
11	0	0	0	0	412	
12	0	0	0	0	135	
13	0	0	0	0	0	
14	0	0	0	0	0	
15	0	0	0	0	0	
0	0	0	0	0	138	
1	0	0	0	0	687	
2	0	0	0	0	1007	
3	0	0	0	0	1022	
4	0	0	0	0	1022	
5	0	0	0	0	1022	
6	0	0	0	0	769	
7	0	0	0	0	683	
8	0	0	0	0	679	
9	0	0	0	0	683	
10	0	0	0	0	626	
11	0	0	0	0	375	
12	0	0	0	0	140	
13	0	0	0	0	120	
14	0	0	0	0	47	
15	0	0	0	0	56	
0	0	0	0	0	1	
1	0	0	0	0	0	
2	0	0	0	0	249	
3	0	0	0	0	612	
4	0	0	0	0	838	
5	0	0	0	0	894	
6	0	0	0	0	854	
7	0	0	0	0	885	
8	0	0	0	0	737	
9	0	0	0	0	583	
10	0	0	0	0	668	
11	0	0	0	0	697	
12	0	0	0	0	488	
13	0	0	0	0	364	
14	0	0	0	0	377	
15	0	0	0	0	267	
0	0	0	0	0	182	
1	0	0	0	0	198	
2	0	0	0	0	285	
3	0	0	0	0	355	
4	0	0	0	0	468	
5	0	0	0	0	601	
6	0	0	0	0	684	
7	0	0	0	0	719	
8	0	0	0	0	710	
9	0	0	0	0	714	
10	0	0	0	0	753	
11	0	0	0	0	809	
12	0	0	0	0	703	
13	0	0	0	0	460	
14	0	0	0	0	305	
15	0	0	0	0	39	
0	0	0	0	0	0	
1	0	0	0	0	0	
2	0	0	0	0	391	
3	0	0	0	0	671	
4	0	0	0	0	751	
5	0	0	0	0	696	
6	0	0	0	0	745	
7	0	0	0	0	907	
8	0	0	0	0	918	
9	0	0	0	0	807	
10	0	0	0	0	497	
11	0	0	0	0	457	
12	0	0	0	0	567	
13	0	0	0	0	578	
14	0	0	0	0	423	
15	0	0	0	0	419	
0	0	0	0	0	314	
1	0	0	0	0	212	
2	0	0	0	0	364	
3	0	0	0	0	492	
4	0	0	0	0	481	
5	0	0	0	0	339	
6	0	0	0	0	298	
7	0	0	0	0	312	
8	0	0	0	0	451	
9	0	0	0	0	638	
10	0	0	0	0	725	
11	0	0	0	0	687	
12	0	0	0	0	817	
13	0	0	0	0	867	
14	0	0	0	0	668	
15	0	0	0	0	546	
0	0	0	0	0	461	
1	0	0	0	0	261	
2	0	0	0	0	209	
3	0	0	0	0	267	
4	0	0	0	0	320	
5	0	0	0	0	376	
6	0	0	0	0	443	
7	0	0	0	0	520	
8	0	0	0	0	575	
9	0	0	0	0	614	
10	0	0	0	0	633	
11	0	0	0	0	620	
12	0	0	0	0	735	
13	0	0	0	0	866	
14	0	0	0	0	826	
15	0	0	0	0	555	
0	0	0	0	0	461	
1	0	0	0	0	313	
2	0	0	0	0	106	
3	0	0	0	0	108	
4	0	0	0	0	302	
5	0	0	0	0	410	
6	0	0	0	0	422	
7	0	0	0	0	468	
8	0	0	0	0	503	
9	0	0	0	0	580	
10	0	0	0	0	646	
11	0	0	0	0	628	
12	0	0	0	0	621	
13	0	0	0	0	826	
14	0	0	0	0	937	
15	0	0	0	0	780	
0	0	0	0	0	547	
1	0	0	0	0	395	
2	0	0	0	0	262	
3	0	0	0	0	170	
4	0	0	0	0	179	
5	0	0	0	0	217	
6	0	0	0	0	335	
7	0	0	0	0	401	
8	0	0	0	0	511	
9	0	0	0	0	567	
10	0	0	0	0	602	
11	0	0	0	0	644	
12	0	0	0	0	653	
13	0	0	0	0	684	
14	0	0	0	0	831	
15	0	0	0	0	873	
0	0	0	0	0	698	
1	0	0	0	0	539	
2	0	0	0	0	450	
3	0	0	0	0	294	
4	0	0	0	0	206	
5	0	0	0	0	224	
6	0	0	0	0	250	
7	0	0	0	0	355	
8	0	0	0	0	423	
9	0	0	0	0	499	
10	0	0	0	0	572	
11	0	0	0	0	594	
12	0	0	0	0	639	
13	0	0	0	0	643	
14	0	0	0	0	707	
15	0	0	0	0	826	
0	0	0	0	0	809	
1	0	0	0	0	581	
2	0	0	0	0	455	
3	0	0	0	0	400	
4	0	0	0	0	230	
5	0	0	0	0	195	
6	0	0	0	0	253	
7	0	0	0	0	297	
8	0	0	0	0	372	
9	0	0	0	0	465	
10	0	0	0	0	532	
11	0	0	0	0	602	
12	0	0	0	0	764	
13	0	0	0	0	679	
14	0	0	0	0	599	
15	0	0	0	0	713	
0	0	0	0	0	820	
1	0	0	0	0	750	
2	0	0	0	0	535	
3	0	0	0	0	422	
4	0	0	0	0	365	
5	0	0	0	0	228	
6	0	0	0	0	193	
7	0	0	0	0	215	
8	0	0	0	0	322	
9	0	0	0	0	394	
10	0	0	0	0	501	
11	0	0	0	0	577	
12	0	0	0	0	617	
13	0	0	0	0	642	
14	0	0	0	0	619	
15	0	0	0	0	636	
0	0	0	0	0	809	
1	0	0	0	0	850	
2	0	0	0	0	725	
3	0	0	0	0	521	
4	0	0	0	0	424	
5	0	0	0	0	288	
6	0	0	0	0	181	
7	0	0	0	0	208	
8	0	0	0	0	256	
9	0	0	0	0	370	
10	0	0	0	0	436	
11	0	0	0	0	526	
12	0	0	0	0	575	
13	0	0	0	0	602	
14	0	0	0	0	629	
15	0	0	0	0	630	
0	0	0	0	0	677	
1	0	0	0	0	797	
2	0	0	0	0	814	
3	0	0	0	0	632	
4	0	0	0	0	500	
5	0	0	0	0	423	
6	0	0	0	0	270	
7	0	0	0	0	207	
8	0	0	0	0	229	
9	0	0	0	0	287	
10	0	0	0	0	396	
11	0	0	0	0	461	
12	0	0	0	0	544	
13	0	0	0	0	583	
14	0	0	0	0	568	
15	0	0	0	0	612	
0	0	0	0	0	636	
1	0	0	0	0	662	
2	0	0	0	0	763	
3	0	0	0	0	763	
4	0	0	0	0	592	
5	0	0	0	0	467	
6	0	0	0	0	411	
7	0	0	0	0	279	
8	0	0	0	0	280	
9	0	0	0	0	315	
10	0	0	0	0	339	
11	0	0	0	0	383	
12	0	0	0	0	442	
13	0	0	0	0	476	
14	0	0	0	0	575	
15	0	0	0	0	674	
0	0	0	0	0	696	
1	0	0	0	0	632	
2	0	0	0	0	737	
3	0	0	0	0	784	
4	0	0	0	0	691	
5	0	0	0	0	550	
6	0	0	0	0	464	
7	0	0	0	0	367	
8	0	0	0	0	265	
9	0	0	0	0	261	
10	0	0	0	0	309	
11	0	0	0	0	376	
12	0	0	0	0	392	
13	0	0	0	0	483	
14	0	0	0	0	515	
15	0	0	0	0	536	
0	0	0	0	0	586	
1	0	0	0	0	605	
2	0	0	0	0	639	
3	0	0	0	0	720	
4	0	0	0	0	761	
5	0	0	0	0	670	
6	0	0	0	0	539	
7	0	0	0	0	477	
8	0	0	0	0	350	
9	0	0	0	0	264	
10	0	0	0	0	281	
11	0	0	0	0	303	
12	0	0	0	0	382	
13	0	0	0	0	431	
14	0	0	0	0	508	
15	0	0	0	0	540	
0	0	0	0	0	547	
1	0	0	0	0	600	
2	0	0	0	0	636	
3	0	0	0	0	618	
4	0	0	0	0	688	
5	0	0	0	0	773	
6	0	0	0	0	677	
7	0	0	0	0	568	
8	0	0	0	0	474	
9	0	0	0	0	369	
10	0	0	0	0	315	
11	0	0	0	0	270	
12	0	0	0	0	307	
13	0	0	0	0	370	
14	0	0	0	0	428	
15	0	0	0	0	499	
0	0	0	0	0	547	
1	0	0	0	0	576	
2	0	0	0	0	608	
3	0	0	0	0	602	
4	0	0	0	0	689	
5	0	0	0	0	774	
6	0	0	0	0	759	
7	0	0	0	0	599	
8	0	0	0	0	491	
9	0	0	0	0	408	
10	0	0	0	0	292	
11	0	0	0	0	230	
12	0	0	0	0	265	
13	0	0	0	0	323	
14	0	0	0	0	356	
15	0	0	0	0	442	
0	0	0	0	0	587	
1	0	0	0	0	601	
2	0	0	0	0	596	
3	0	0	0	0	635	
4	0	0	0	0	627	
5	0	0	0	0	739	
6	0	0	0	0	807	
7	0	0	0	0	691	
8	0	0	0	0	537	
9	0	0	0	0	455	
10	0	0	0	0	326	
11	0	0	0	0	237	
12	0	0	0	0	241	
13	0	0	0	0	277	
14	0	0	0	0	398	
15	0	0	0	0	475	
0	0	0	0	0	537	
1	0	0	0	0	553	
2	0	0	0	0	565	
3	0	0	0	0	617	
4	0	0	0	0	622	
5	0	0	0	0	642	
6	0	0	0	0	730	
7	0	0	0	0	766	
8	0	0	0	0	627	
9	0	0	0	0	505	
10	0	0	0	0	454	
11	0	0	0	0	242	
12	0	0	0	0	231	
13	0	0	0	0	281	
14	0	0	0	0	336	
15	0	0	0	0	419	
0	0	0	0	0	479	
1	0	0	0	0	542	
2	0	0	0	0	563	
3	0	0	0	0	596	
4	0	0	0	0	630	
5	0	0	0	0	625	
6	0	0	0	0	697	
7	0	0	0	0	777	
8	0	0	0	0	723	
9	0	0	0	0	543	
10	0	0	0	0	466	
11	0	0	0	0	379	
12	0	0	0	0	282	
13	0	0	0	0	291	
14	0	0	0	0	297	
15	0	0	0	0	340	
0	0	0	0	0	421	
1	0	0	0	0	489	
2	0	0	0	0	527	
3	0	0	0	0	525	
4	0	0	0	0	584	
5	0	0	0	0	620	
6	0	0	0	0	639	
7	0	0	0	0	735	
8	0	0	0	0	824	
9	0	0	0	0	716	
10	0	0	0	0	536	
11	0	0	0	0	463	
12	0	0	0	0	325	
13	0	0	0	0	241	
14	0	0	0	0	238	
15	0	0	0	0	274	
0	0	0	0	0	386	
1	0	0	0	0	436	
2	0	0	0	0	523	
3	0	0	0	0	575	
4	0	0	0	0	599	
5	0	0	0	0	625	
6	0	0	0	0	624	
7	0	0	0	0	639	
8	0	0	0	0	764	
9	0	0	0	0	803	
10	0	0	0	0	646	
11	0	0	0	0	497	
12	0	0	0	0	429	
13	0	0	0	0	299	
14	0	0	0	0	239	
15	0	0	0	0	247	
0	0	0	0	0	291	
1	0	0	0	0	392	
2	0	0	0	0	450	
3	0	0	0	0	517	
4	0	0	0	0	565	
5	0	0	0	0	599	
6	0	0	0	0	619	
7	0	0	0	0	594	
8	0	0	0	0	657	
9	0	0	0	0	779	
10	0	0	0	0	787	
11	0	0	0	0	604	
12	0	0	0	0	479	
13	0	0	0	0	432	
14	0	0	0	0	279	
15	0	0	0	0	225	
0	0	0	0	0	225	
1	0	0	0	0	358	
2	0	0	0	0	417	
3	0	0	0	0	454	
4	0	0	0	0	545	
5	0	0	0	0	619	
6	0	0	0	0	652	
7	0	0	0	0	624	
8	0	0	0	0	608	
9	0	0	0	0	704	
10	0	0	0	0	757	
11	0	0	0	0	697	
12	0	0	0	0	560	
13	0	0	0	0	466	
14	0	0	0	0	383	
15	0	0	0	0	239	
0	0	0	0	0	228	
1	0	0	0	0	265	
2	0	0	0	0	379	
3	0	0	0	0	427	
4	0	0	0	0	523	
5	0	0	0	0	569	
6	0	0	0	0	588	
7	0	0	0	0	613	
8	0	0	0	0	603	
9	0	0	0	0	619	
10	0	0	0	0	734	
11	0	0	0	0	768	
12	0	0	0	0	664	
13	0	0	0	0	537	
14	0	0	0	0	455	
15	0	0	0	0	347	
0	0	0	0	0	232	
1	0	0	0	0	235	
2	0	0	0	0	260	
3	0	0	0	0	390	
4	0	0	0	0	435	
5	0	0	0	0	540	
6	0	0	0	0	580	
7	0	0	0	0	579	
8	0	0	0	0	589	
9	0	0	0	0	621	
10	0	0	0	0	683	
11	0	0	0	0	790	
12	0	0	0	0	787	
13	0	0	0	0	608	
14	0	0	0	0	491	
15	0	0	0	0	423	
0	0	0	0	0	289	
1	0	0	0	0	241	
2	0	0	0	0	259	
3	0	0	0	0	334	
4	0	0	0	0	401	
5	0	0	0	0	462	
6	0	0	0	0	569	
7	0	0	0	0	635	
8	0	0	0	0	620	
9	0	0	0	0	615	
10	0	0	0	0	592	
11	0	0	0	0	652	
12	0	0	0	0	765	
13	0	0	0	0	748	
14	0	0	0	0	600	
15	0	0	0	0	475	
0	0	0	0	0	381	
1	0	0	0	0	262	
2	0	0	0	0	228	
3	0	0	0	0	240	
4	0	0	0	0	324	
5	0	0	0	0	401	
6	0	0	0	0	513	
7	0	0	0	0	568	
8	0	0	0	0	567	
9	0	0	0	0	569	
10	0	0	0	0	655	
11	0	0	0	0	685	
12	0	0	0	0	776	
13	0	0	0	0	789	
14	0	0	0	0	662	
15	0	0	0	0	523	
0	0	0	0	0	437	
1	0	0	0	0	323	
2	0	0	0	0	248	
3	0	0	0	0	250	
4	0	0	0	0	268	
5	0	0	0	0	372	
6	0	0	0	0	433	
7	0	0	0	0	528	
8	0	0	0	0	573	
9	0	0	0	0	580	
10	0	0	0	0	627	
11	0	0	0	0	642	
12	0	0	0	0	648	
13	0	0	0	0	759	
14	0	0	0	0	778	
15	0	0	0	0	628	
0	0	0	0	0	494	
1	0	0	0	0	432	
2	0	0	0	0	301	
3	0	0	0	0	233	
4	0	0	0	0	248	
5	0	0	0	0	307	
6	0	0	0	0	389	
7	0	0	0	0	447	
8	0	0	0	0	542	
9	0	0	0	0	580	
10	0	0	0	0	604	
11	0	0	0	0	626	
12	0	0	0	0	612	
13	0	0	0	0	658	
14	0	0	0	0	765	
15	0	0	0	0	798	
0	0	0	0	0	608	
1	0	0	0	0	479	
2	0	0	0	0	401	
3	0	0	0	0	280	
4	0	0	0	0	237	
5	0	0	0	0	252	
6	0	0	0	0	327	
7	0	0	0	0	399	
8	0	0	0	0	504	
9	0	0	0	0	560	
10	0	0	0	0	561	
11	0	0	0	0	591	
12	0	0	0	0	625	
13	0	0	0	0	636	
14	0	0	0	0	730	
15	0	0	0	0	793	
0	0	0	0	0	732	
1	0	0	0	0	559	
2	0	0	0	0	460	
3	0	0	0	0	371	
4	0	0	0	0	255	
5	0	0	0	0	263	
6	0	0	0	0	272	
7	0	0	0	0	358	
8	0	0	0	0	407	
9	0	0	0	0	476	
10	0	0	0	0	544	
11	0	0	0	0	585	
12	0	0	0	0	639	
13	0	0	0	0	629	
14	0	0	0	0	627	
15	0	0	0	0	722	
0	0	0	0	0	767	
1	0	0	0	0	658	
2	0	0	0	0	521	
3	0	0	0	0	430	
4	0	0	0	0	325	
5	0	0	0	0	238	
6	0	0	0	0	242	
7	0	0	0	0	289	
8	0	0	0	0	361	
9	0	0	0	0	460	
10	0	0	0	0	549	
11	0	0	0	0	595	
12	0	0	0	0	593	
13	0	0	0	0	612	
14	0	0	0	0	652	
15	0	0	0	0	664	
0	0	0	0	0	772	
1	0	0	0	0	783	
2	0	0	0	0	602	
3	0	0	0	0	471	
4	0	0	0	0	398	
5	0	0	0	0	294	
6	0	0	0	0	259	
7	0	0	0	0	287	
8	0	0	0	0	304	
9	0	0	0	0	404	
10	0	0	0	0	464	
11	0	0	0	0	501	
12	0	0	0	0	571	
13	0	0	0	0	608	
14	0	0	0	0	622	
15	0	0	0	0	628	
0	0	0	0	0	723	
1	0	0	0	0	796	
2	0	0	0	0	738	
3	0	0	0	0	565	
4	0	0	0	0	485	
5	0	0	0	0	393	
6	0	0	0	0	269	
7	0	0	0	0	231	
8	0	0	0	0	252	
9	0	0	0	0	349	
10	0	0	0	0	408	
11	0	0	0	0	486	
12	0	0	0	0	576	
13	0	0	0	0	599	
14	0	0	0	0	616	
15	0	0	0	0	614	
0	0	0	0	0	618	
1	0	0	0	0	729	
2	0	0	0	0	767	
3	0	0	0	0	697	
4	0	0	0	0	537	
5	0	0	0	0	447	
6	0	0	0	0	327	
7	0	0	0	0	206	
8	0	0	0	0	213	
9	0	0	0	0	283	
10	0	0	0	0	403	
11	0	0	0	0	448	
12	0	0	0	0	548	
13	0	0	0	0	588	
14	0	0	0	0	605	
15	0	0	0	0	607	
0	0	0	0	0	568	
1	0	0	0	0	652	
2	0	0	0	0	828	
3	0	0	0	0	802	
4	0	0	0	0	618	
5	0	0	0	0	484	
6	0	0	0	0	412	
7	0	0	0	0	282	
8	0	0	0	0	219	
9	0	0	0	0	261	
10	0	0	0	0	314	
11	0	0	0	0	421	
12	0	0	0	0	485	
13	0	0	0	0	543	
14	0	0	0	0	569	
15	0	0	0	0	593	
0	0	0	0	0	622	
1	0	0	0	0	621	
2	0	0	0	0	679	
3	0	0	0	0	779	
4	0	0	0	0	750	
5	0	0	0	0	582	
6	0	0	0	0	472	
7	0	0	0	0	395	
8	0	0	0	0	257	
9	0	0	0	0	233	
10	0	0	0	0	283	
11	0	0	0	0	338	
12	0	0	0	0	411	
13	0	0	0	0	502	
14	0	0	0	0	581	
15	0	0	0	0	579	
0	0	0	0	0	595	
1	0	0	0	0	598	
2	0	0	0	0	595	
3	0	0	0	0	713	
4	0	0	0	0	796	
5	0	0	0	0	706	
6	0	0	0	0	566	
7	0	0	0	0	465	
8	0	0	0	0	367	
9	0	0	0	0	256	
10	0	0	0	0	228	
11	0	0	0	0	278	
12	0	0	0	0	383	
13	0	0	0	0	427	
14	0	0	0	0	499	
15	0	0	0	0	560	
0	0	0	0	0	583	
1	0	0	0	0	612	
2	0	0	0	0	611	
3	0	0	0	0	628	
4	0	0	0	0	750	
5	0	0	0	0	803	
6	0	0	0	0	677	
7	0	0	0	0	527	
8	0	0	0	0	449	
9	0	0	0	0	320	
10	0	0	0	0	235	
11	0	0	0	0	243	
12	0	0	0	0	276	
13	0	0	0	0	385	
14	0	0	0	0	451	
15	0	0	0	0	535	
0	0	0	0	0	562	
1	0	0	0	0	588	
2	0	0	0	0	631	
3	0	0	0	0	622	
4	0	0	0	0	656	
5	0	0	0	0	775	
6	0	0	0	0	783	
7	0	0	0	0	612	
8	0	0	0	0	500	
9	0	0	0	0	423	
10	0	0	0	0	273	
11	0	0	0	0	206	
12	0	0	0	0	236	
13	0	0	0	0	332	
14	0	0	0	0	400	
15	0	0	0	0	479	
0	0	0	0	0	548	
1	0	0	0	0	565	
2	0	0	0	0	596	
3	0	0	0	0	620	
4	0	0	0	0	638	
5	0	0	0	0	716	
6	0	0	0	0	805	
7	0	0	0	0	768	
8	0	0	0	0	575	
9	0	0	0	0	451	
10	0	0	0	0	352	
11	0	0	0	0	228	
12	0	0	0	0	214	
13	0	0	0	0	260	
14	0	0	0	0	344	
15	0	0	0	0	398	
0	0	0	0	0	488	
1	0	0	0	0	548	
2	0	0	0	0	600	
3	0	0	0	0	658	
4	0	0	0	0	669	
5	0	0	0	0	659	
6	0	0	0	0	762	
7	0	0	0	0	793	
8	0	0	0	0	675	
9	0	0	0	0	522	
10	0	0	0	0	427	
11	0	0	0	0	323	
12	0	0	0	0	231	
13	0	0	0	0	231	
14	0	0	0	0	261	
15	0	0	0	0	370	
0	0	0	0	0	440	
1	0	0	0	0	521	
2	0	0	0	0	560	
3	0	0	0	0	596	
4	0	0	0	0	625	
5	0	0	0	0	618	
6	0	0	0	0	658	
7	0	0	0	0	760	
8	0	0	0	0	791	
9	0	0	0	0	644	
10	0	0	0	0	521	
11	0	0	0	0	454	
12	0	0	0	0	308	
13	0	0	0	0	237	
14	0	0	0	0	370	
15	0	0	0	0	410	
0	0	0	0	0	479	
1	0	0	0	0	476	
2	0	0	0	0	499	
3	0	0	0	0	505	
4	0	0	0	0	494	
5	0	0	0	0	517	
6	0	0	0	0	538	
7	0	0	0	0	492	
8	0	0	0	0	527	
9	0	0	0	0	588	
10	0	0	0	0	557	
11	0	0	0	0	512	
12	0	0	0	0	540	
13	0	0	0	0	504	
14	0	0	0	0	462	
15	0	0	0	0	469	
0	0	0	0	0	464	
1	0	0	0	0	506	
2	0	0	0	0	496	
3	0	0	0	0	511	
4	0	0	0	0	497	
5	0	0	0	0	515	
6	0	0	0	0	516	
7	0	0	0	0	520	
8	0	0	0	0	520	
9	0	0	0	0	540	
10	0	0	0	0	583	
11	0	0	0	0	529	
12	0	0	0	0	492	
13	0	0	0	0	543	
14	0	0	0	0	515	
15	0	0	0	0	482	
0	0	0	0	0	469	
1	0	0	0	0	458	
2	0	0	0	0	496	
3	0	0	0	0	499	
4	0	0	0	0	519	
5	0	0	0	0	520	
6	0	0	0	0	512	
7	0	0	0	0	508	
8	0	0	0	0	485	
9	0	0	0	0	511	
10	0	0	0	0	552	
11	0	0	0	0	584	
12	0	0	0	0	526	
13	0	0	0	0	501	
14	0	0	0	0	521	
15	0	0	0	0	466	
0	0	0	0	0	465	
1	0	0	0	0	473	
2	0	0	0	0	493	
3	0	0	0	0	493	
4	0	0	0	0	511	
5	0	0	0	0	516	
6	0	0	0	0	493	
7	0	0	0	0	520	
8	0	0	0	0	532	
9	0	0	0	0	486	
10	0	0	0	0	502	
11	0	0	0	0	528	
12	0	0	0	0	529	
13	0	0	0	0	537	
14	0	0	0	0	526	
15	0	0	0	0	534	
0	0	0	0	0	499	
1	0	0	0	0	462	
2	0	0	0	0	455	
3	0	0	0	0	488	
4	0	0	0	0	467	
5	0	0	0	0	497	
6	0	0	0	0	508	
7	0	0	0	0	503	
8	0	0	0	0	538	
9	0	0	0	0	531	
10	0	0	0	0	514	
11	0	0	0	0	544	
12	0	0	0	0	581	
13	0	0	0	0	534	
14	0	0	0	0	508	
15	0	0	0	0	520	
0	0	0	0	0	492	
1	0	0	0	0	475	
2	0	0	0	0	478	
3	0	0	0	0	466	
4	0	0	0	0	501	
5	0	0	0	0	503	
6	0	0	0	0	510	
7	0	0	0	0	505	
8	0	0	0	0	519	
9	0	0	0	0	523	
10	0	0	0	0	507	
11	0	0	0	0	515	
12	0	0	0	0	531	
13	0	0	0	0	564	
14	0	0	0	0	526	
15	0	0	0	0	499	
0	0	0	0	0	530	
1	0	0	0	0	486	
2	0	0	0	0	472	
3	0	0	0	0	472	
4	0	0	0	0	478	
5	0	0	0	0	486	
6	0	0	0	0	502	
7	0	0	0	0	511	
8	0	0	0	0	508	
9	0	0	0	0	520	
10	0	0	0	0	528	
11	0	0	0	0	486	
12	0	0	0	0	500	
13	0	0	0	0	535	
14	0	0	0	0	554	
15	0	0	0	0	519	
0	0	0	0	0	501	
1	0	0	0	0	519	
2	0	0	0	0	503	
3	0	0	0	0	485	
4	0	0	0	0	468	
5	0	0	0	0	505	
6	0	0	0	0	488	
7	0	0	0	0	505	
8	0	0	0	0	507	
9	0	0	0	0	496	
10	0	0	0	0	505	
11	0	0	0	0	503	
12	0	0	0	0	475	
13	0	0	0	0	518	
14	0	0	0	0	583	
15	0	0	0	0	548	
0	0	0	0	0	525	
1	0	0	0	0	543	
2	0	0	0	0	497	
3	0	0	0	0	469	
4	0	0	0	0	478	
5	0	0	0	0	465	
6	0	0	0	0	507	
7	0	0	0	0	496	
8	0	0	0	0	508	
9	0	0	0	0	513	
10	0	0	0	0	506	
11	0	0	0	0	507	
12	0	0	0	0	494	
13	0	0	0	0	480	
14	0	0	0	0	516	
15	0	0	0	0	559	
0	0	0	0	0	544	
1	0	0	0	0	542	
2	0	0	0	0	573	
3	0	0	0	0	521	
4	0	0	0	0	489	
5	0	0	0	0	482	
6	0	0	0	0	472	
7	0	0	0	0	492	
8	0	0	0	0	500	
9	0	0	0	0	503	
10	0	0	0	0	499	
11	0	0	0	0	507	
12	0	0	0	0	509	
13	0	0	0	0	479	
14	0	0	0	0	487	
15	0	0	0	0	521	
0	0	0	0	0	562	
1	0	0	0	0	524	
2	0	0	0	0	521	
3	0	0	0	0	551	
4	0	0	0	0	492	
5	0	0	0	0	490	
6	0	0	0	0	480	
7	0	0	0	0	488	
8	0	0	0	0	485	
9	0	0	0	0	503	
10	0	0	0	0	507	
11	0	0	0	0	495	
12	0	0	0	0	510	
13	0	0	0	0	516	
14	0	0	0	0	480	
15	0	0	0	0	494	
0	0	0	0	0	553	
1	0	0	0	0	552	
2	0	0	0	0	512	
3	0	0	0	0	513	
4	0	0	0	0	494	
5	0	0	0	0	463	
6	0	0	0	0	479	
7	0	0	0	0	493	
8	0	0	0	0	541	
9	0	0	0	0	511	
10	0	0	0	0	510	
11	0	0	0	0	524	
12	0	0	0	0	512	
13	0	0	0	0	502	
14	0	0	0	0	502	
15	0	0	0	0	477	
0	0	0	0	0	513	
1	0	0	0	0	579	
2	0	0	0	0	548	
3	0	0	0	0	524	
4	0	0	0	0	542	
5	0	0	0	0	500	
6	0	0	0	0	479	
7	0	0	0	0	483	
8	0	0	0	0	468	
9	0	0	0	0	498	
10	0	0	0	0	491	
11	0	0	0	0	500	
12	0	0	0	0	505	
13	0	0	0	0	508	
14	0	0	0	0	513	
15	0	0	0	0	489	
0	0	0	0	0	495	
1	0	0	0	0	535	
2	0	0	0	0	581	
3	0	0	0	0	543	
4	0	0	0	0	517	
5	0	0	0	0	538	
6	0	0	0	0	493	
7	0	0	0	0	472	
8	0	0	0	0	468	
9	0	0	0	0	479	
10	0	0	0	0	484	
11	0	0	0	0	497	
12	0	0	0	0	509	
13	0	0	0	0	497	
14	0	0	0	0	498	
15	0	0	0	0	522	
0	0	0	0	0	488	
1	0	0	0	0	509	
2	0	0	0	0	549	
3	0	0	0	0	564	
4	0	0	0	0	528	
5	0	0	0	0	527	
6	0	0	0	0	521	
7	0	0	0	0	482	
8	0	0	0	0	474	
9	0	0	0	0	460	
10	0	0	0	0	498	
11	0	0	0	0	485	
12	0	0	0	0	500	
13	0	0	0	0	508	
14	0	0	0	0	500	
15	0	0	0	0	515	
0	0	0	0	0	518	
1	0	0	0	0	488	
2	0	0	0	0	519	
3	0	0	0	0	571	
4	0	0	0	0	551	
5	0	0	0	0	518	
6	0	0	0	0	527	
7	0	0	0	0	514	
8	0	0	0	0	481	
9	0	0	0	0	472	
10	0	0	0	0	463	
11	0	0	0	0	502	
12	0	0	0	0	484	
13	0	0	0	0	500	
14	0	0	0	0	504	
15	0	0	0	0	502	
0	0	0	0	0	512	
1	0	0	0	0	505	
2	0	0	0	0	494	
3	0	0	0	0	539	
4	0	0	0	0	601	
5	0	0	0	0	551	
6	0	0	0	0	515	
7	0	0	0	0	538	
8	0	0	0	0	487	
9	0	0	0	0	471	
10	0	0	0	0	471	
11	0	0	0	0	481	
12	0	0	0	0	525	
13	0	0	0	0	524	
14	0	0	0	0	508	
15	0	0	0	0	487	
0	0	0	0	0	483	
1	0	0	0	0	486	
2	0	0	0	0	467	
3	0	0	0	0	502	
4	0	0	0	0	555	
5	0	0	0	0	576	
6	0	0	0	0	535	
7	0	0	0	0	519	
8	0	0	0	0	536	
9	0	0	0	0	514	
10	0	0	0	0	485	
11	0	0	0	0	469	
12	0	0	0	0	483	
13	0	0	0	0	470	
14	0	0	0	0	492	
15	0	0	0	0	506	
0	0	0	0	0	499	
1	0	0	0	0	511	
2	0	0	0	0	513	
3	0	0	0	0	478	
4	0	0	0	0	510	
5	0	0	0	0	562	
6	0	0	0	0	558	
7	0	0	0	0	525	
8	0	0	0	0	530	
9	0	0	0	0	506	
10	0	0	0	0	478	
11	0	0	0	0	472	
12	0	0	0	0	454	
13	0	0	0	0	496	
14	0	0	0	0	487	
15	0	0	0	0	508	
0	0	0	0	0	514	
1	0	0	0	0	510	
2	0	0	0	0	519	
3	0	0	0	0	517	
4	0	0	0	0	495	
5	0	0	0	0	527	
6	0	0	0	0	590	
7	0	0	0	0	550	
8	0	0	0	0	518	
9	0	0	0	0	540	
10	0	0	0	0	498	
11	0	0	0	0	473	
12	0	0	0	0	478	
13	0	0	0	0	463	
14	0	0	0	0	498	
15	0	0	0	0	494	
0	0	0	0	0	510	
1	0	0	0	0	512	
2	0	0	0	0	516	
3	0	0	0	0	519	
4	0	0	0	0	492	
5	0	0	0	0	497	
6	0	0	0	0	534	
7	0	0	0	0	574	
8	0	0	0	0	531	
9	0	0	0	0	512	
10	0	0	0	0	537	
11	0	0	0	0	483	
12	0	0	0	0	464	
13	0	0	0	0	460	
14	0	0	0	0	480	
15	0	0	0	0	483	
0	0	0	0	0	499	
1	0	0	0	0	507	
2	0	0	0	0	504	
3	0	0	0	0	508	
4	0	0	0	0	515	
5	0	0	0	0	477	
6	0	0	0	0	505	
7	0	0	0	0	552	
8	0	0	0	0	568	
9	0	0	0	0	528	
10	0	0	0	0	534	
11	0	0	0	0	524	
12	0	0	0	0	488	
13	0	0	0	0	474	
14	0	0	0	0	456	
15	0	0	0	0	497	
0	0	0	0	0	486	
1	0	0	0	0	499	
2	0	0	0	0	508	
3	0	0	0	0	499	
4	0	0	0	0	511	
5	0	0	0	0	520	
6	0	0	0	0	477	
7	0	0	0	0	518	
8	0	0	0	0	582	
9	0	0	0	0	560	
10	0	0	0	0	528	
11	0	0	0	0	540	
12	0	0	0	0	499	
13	0	0	0	0	468	
14	0	0	0	0	473	
15	0	0	0	0	458	
0	0	0	0	0	497	
1	0	0	0	0	486	
2	0	0	0	0	496	
3	0	0	0	0	504	
4	0	0	0	0	517	
5	0	0	0	0	531	
6	0	0	0	0	510	
7	0	0	0	0	501	
8	0	0	0	0	535	
9	0	0	0	0	597	
10	0	0	0	0	553	
11	0	0	0	0	523	
12	0	0	0	0	525	
13	0	0	0	0	467	
14	0	0	0	0	453	
15	0	0	0	0	455	
0	0	0	0	0	465	
1	0	0	0	0	482	
2	0	0	0	0	500	
3	0	0	0	0	510	
4	0	0	0	0	507	
5	0	0	0	0	512	
6	0	0	0	0	509	
7	0	0	0	0	488	
8	0	0	0	0	541	
9	0	0	0	0	568	
10	0	0	0	0	590	
11	0	0	0	0	539	
12	0	0	0	0	518	
13	0	0	0	0	509	
14	0	0	0	0	472	
15	0	0	0	0	459	
0	0	0	0	0	445	
1	0	0	0	0	484	
2	0	0	0	0	479	
3	0	0	0	0	483	
4	0	0	0	0	487	
5	0	0	0	0	522	
6	0	0	0	0	555	
7	0	0	0	0	546	
8	0	0	0	0	485	
9	0	0	0	0	504	
10	0	0	0	0	569	
11	0	0	0	0	575	
12	0	0	0	0	538	
13	0	0	0	0	528	
14	0	0	0	0	490	
15	0	0	0	0	460	
0	0	0	0	0	455	
1	0	0	0	0	446	
2	0	0	0	0	493	
3	0	0	0	0	484	
4	0	0	0	0	510	
5	0	0	0	0	519	
6	0	0	0	0	515	
7	0	0	0	0	517	
8	0	0	0	0	511	
9	0	0	0	0	492	
10	0	0	0	0	540	
11	0	0	0	0	601	
12	0	0	0	0	552	
13	0	0	0	0	521	
14	0	0	0	0	527	
15	0	0	0	0	483	
0	0	0	0	0	459	
1	0	0	0	0	467	
2	0	0	0	0	461	
3	0	0	0	0	493	
4	0	0	0	0	497	
5	0	0	0	0	509	
6	0	0	0	0	510	
7	0	0	0	0	517	
8	0	0	0	0	523	
9	0	0	0	0	495	
10	0	0	0	0	513	
11	0	0	0	0	551	
12	0	0	0	0	584	
13	0	0	0	0	537	
14	0	0	0	0	513	
15	0	0	0	0	525	
0	0	0	0	0	470	
1	0	0	0	0	454	
2	0	0	0	0	451	
3	0	0	0	0	482	
4	0	0	0	0	481	
5	0	0	0	0	500	
6	0	0	0	0	513	
7	0	0	0	0	509	
8	0	0	0	0	504	
9	0	0	0	0	511	
10	0	0	0	0	493	
11	0	0	0	0	532	
12	0	0	0	0	571	
13	0	0	0	0	569	
14	0	0	0	0	527	
15	0	0	0	0	533	
0	0	0	0	0	510	
1	0	0	0	0	464	
2	0	0	0	0	448	
3	0	0	0	0	437	
4	0	0	0	0	488	
5	0	0	0	0	479	
6	0	0	0	0	505	
7	0	0	0	0	518	
8	0	0	0	0	511	
9	0	0	0	0	523	
10	0	0	0	0	524	
11	0	0	0	0	500	
12	0	0	0	0	543	
13	0	0	0	0	600	
14	0	0	0	0	556	
15	0	0	0	0	520	
0	0	0	0	0	527	
1	0	0	0	0	482	
2	0	0	0	0	451	
3	0	0	0	0	459	
4	0	0	0	0	432	
5	0	0	0	0	491	
6	0	0	0	0	512	
7	0	0	0	0	516	
8	0	0	0	0	517	
9	0	0	0	0	518	
10	0	0	0	0	523	
11	0	0	0	0	506	
12	0	0	0	0	518	
13	0	0	0	0	560	
14	0	0	0	0	603	
15	0	0	0	0	538	
0	0	0	0	0	512	
1	0	0	0	0	525	
2	0	0	0	0	468	
3	0	0	0	0	455	
4	0	0	0	0	453	
5	0	0	0	0	471	
6	0	0	0	0	480	
7	0	0	0	0	490	
8	0	0	0	0	507	
9	0	0	0	0	508	
10	0	0	0	0	516	
11	0	0	0	0	525	
12	0	0	0	0	489	
13	0	0	0	0	513	
14	0	0	0	0	559	
15	0	0	0	0	579	
0	0	0	0	0	531	
1	0	0	0	0	532	
2	0	0	0	0	514	
3	0	0	0	0	457	
4	0	0	0	0	444	
5	0	0	0	0	442	
6	0	0	0	0	502	
7	0	0	0	0	489	
8	0	0	0	0	498	
9	0	0	0	0	512	
10	0	0	0	0	505	
11	0	0	0	0	516	
12	0	0	0	0	521	
13	0	0	0	0	494	
14	0	0	0	0	543	
15	0	0	0	0	598	
0	0	0	0	0	568	
1	0	0	0	0	524	
2	0	0	0	0	524	
3	0	0	0	0	487	
4	0	0	0	0	455	
5	0	0	0	0	451	
6	0	0	0	0	442	
7	0	0	0	0	491	
8	0	0	0	0	482	
9	0	0	0	0	502	
10	0	0	0	0	509	
11	0	0	0	0	514	
12	0	0	0	0	529	
13	0	0	0	0	524	
14	0	0	0	0	511	
15	0	0	0	0	552	
0	0	0	0	0	615	
1	0	0	0	0	556	
2	0	0	0	0	514	
3	0	0	0	0	525	
4	0	0	0	0	470	
5	0	0	0	0	438	
6	0	0	0	0	436	
7	0	0	0	0	433	
8	0	0	0	0	499	
9	0	0	0	0	512	
10	0	0	0	0	504	
11	0	0	0	0	517	
12	0	0	0	0	554	
13	0	0	0	0	545	
14	0	0	0	0	488	
15	0	0	0	0	515	
0	0	0	0	0	562	
1	0	0	0	0	609	
2	0	0	0	0	554	
3	0	0	0	0	528	
4	0	0	0	0	516	
5	0	0	0	0	452	
6	0	0	0	0	425	
7	0	0	0	0	420	
8	0	0	0	0	467	
9	0	0	0	0	476	
10	0	0	0	0	499	
11	0	0	0	0	524	
12	0	0	0	0	514	
13	0	0	0	0	526	
14	0	0	0	0	534	
15	0	0	0	0	482	
0	0	0	0	0	531	
1	0	0	0	0	600	
2	0	0	0	0	579	
3	0	0	0	0	515	
4	0	0	0	0	517	
5	0	0	0	0	487	
6	0	0	0	0	430	
7	0	0	0	0	418	
8	0	0	0	0	409	
9	0	0	0	0	462	
10	0	0	0	0	475	
11	0	0	0	0	524	
12	0	0	0	0	532	
13	0	0	0	0	526	
14	0	0	0	0	539	
15	0	0	0	0	541	
0	0	0	0	0	516	
1	0	0	0	0	576	
2	0	0	0	0	656	
3	0	0	0	0	601	
4	0	0	0	0	538	
5	0	0	0	0	528	
6	0	0	0	0	461	
7	0	0	0	0	410	
8	0	0	0	0	415	
9	0	0	0	0	425	
10	0	0	0	0	475	
11	0	0	0	0	452	
12	0	0	0	0	473	
13	0	0	0	0	514	
14	0	0	0	0	528	
15	0	0	0	0	546	
0	0	0	0	0	545	
1	0	0	0	0	556	
2	0	0	0	0	629	
3	0	0	0	0	659	
4	0	0	0	0	548	
5	0	0	0	0	491	
6	0	0	0	0	509	
7	0	0	0	0	438	
8	0	0	0	0	394	
9	0	0	0	0	392	
10	0	0	0	0	408	
11	0	0	0	0	436	
12	0	0	0	0	471	
13	0	0	0	0	502	
14	0	0	0	0	522	
15	0	0	0	0	555	
0	0	0	0	0	569	
1	0	0	0	0	512	
2	0	0	0	0	564	
3	0	0	0	0	634	
4	0	0	0	0	648	
5	0	0	0	0	581	
6	0	0	0	0	555	
7	0	0	0	0	495	
8	0	0	0	0	395	
9	0	0	0	0	381	
10	0	0	0	0	374	
11	0	0	0	0	446	
12	0	0	0	0	431	
13	0	0	0	0	458	
14	0	0	0	0	486	
15	0	0	0	0	500	
0	0	0	0	0	539	
1	0	0	0	0	554	
2	0	0	0	0	525	
3	0	0	0	0	590	
4	0	0	0	0	686	
5	0	0	0	0	648	
6	0	0	0	0	575	
7	0	0	0	0	547	
8	0	0	0	0	477	
9	0	0	0	0	403	
10	0	0	0	0	391	
11	0	0	0	0	370	
12	0	0	0	0	438	
13	0	0	0	0	436	
14	0	0	0	0	475	
15	0	0	0	0	503	
0	0	0	0	0	519	
1	0	0	0	0	551	
2	0	0	0	0	565	
3	0	0	0	0	575	
4	0	0	0	0	623	
5	0	0	0	0	662	
6	0	0	0	0	536	
7	0	0	0	0	512	
8	0	0	0	0	580	
9	0	0	0	0	463	
10	0	0	0	0	382	
11	0	0	0	0	380	
12	0	0	0	0	387	
13	0	0	0	0	415	
14	0	0	0	0	440	
15	0	0	0	0	492	
0	0	0	0	0	530	
1	0	0	0	0	551	
2	0	0	0	0	573	
3	0	0	0	0	534	
4	0	0	0	0	579	
5	0	0	0	0	690	
6	0	0	0	0	742	
7	0	0	0	0	587	
8	0	0	0	0	488	
9	0	0	0	0	455	
10	0	0	0	0	384	
11	0	0	0	0	372	
12	0	0	0	0	366	
13	0	0	0	0	412	
14	0	0	0	0	417	
15	0	0	0	0	461	
0	0	0	0	0	487	
1	0	0	0	0	487	
2	0	0	0	0	542	
3	0	0	0	0	578	
4	0	0	0	0	535	
5	0	0	0	0	590	
6	0	0	0	0	665	
7	0	0	0	0	658	
8	0	0	0	0	572	
9	0	0	0	0	563	
10	0	0	0	0	508	
11	0	0	0	0	424	
12	0	0	0	0	372	
13	0	0	0	0	341	
14	0	0	0	0	408	
15	0	0	0	0	411	
0	0	0	0	0	471	
1	0	0	0	0	513	
2	0	0	0	0	508	
3	0	0	0	0	546	
4	0	0	0	0	557	
5	0	0	0	0	548	
6	0	0	0	0	629	
7	0	0	0	0	734	
8	0	0	0	0	647	
9	0	0	0	0	556	
10	0	0	0	0	525	
11	0	0	0	0	423	
12	0	0	0	0	352	
13	0	0	0	0	362	
14	0	0	0	0	364	
15	0	0	0	0	438	
0	0	0	0	0	455	
1	0	0	0	0	489	
2	0	0	0	0	511	
3	0	0	0	0	543	
4	0	0	0	0	558	
5	0	0	0	0	540	
6	0	0	0	0	575	
7	0	0	0	0	657	
8	0	0	0	0	721	
9	0	0	0	0	615	
10	0	0	0	0	540	
11	0	0	0	0	524	
12	0	0	0	0	397	
13	0	0	0	0	348	
14	0	0	0	0	340	
15	0	0	0	0	374	
0	0	0	0	0	408	
1	0	0	0	0	457	
2	0	0	0	0	493	
3	0	0	0	0	506	
4	0	0	0	0	538	
5	0	0	0	0	547	
6	0	0	0	0	507	
7	0	0	0	0	619	
8	0	0	0	0	712	
9	0	0	0	0	727	
10	0	0	0	0	614	
11	0	0	0	0	546	
12	0	0	0	0	472	
13	0	0	0	0	365	
14	0	0	0	0	329	
15	0	0	0	0	319	
0	0	0	0	0	391	
1	0	0	0	0	414	
2	0	0	0	0	483	
3	0	0	0	0	526	
4	0	0	0	0	535	
5	0	0	0	0	558	
6	0	0	0	0	566	
7	0	0	0	0	541	
8	0	0	0	0	631	
9	0	0	0	0	729	
10	0	0	0	0	646	
11	0	0	0	0	543	
12	0	0	0	0	530	
13	0	0	0	0	449	
14	0	0	0	0	356	
15	0	0	0	0	366	
0	0	0	0	0	360	
1	0	0	0	0	433	
2	0	0	0	0	451	
3	0	0	0	0	479	
4	0	0	0	0	508	
5	0	0	0	0	531	
6	0	0	0	0	561	
7	0	0	0	0	552	
8	0	0	0	0	578	
9	0	0	0	0	646	
10	0	0	0	0	716	
11	0	0	0	0	621	
12	0	0	0	0	545	
13	0	0	0	0	524	
14	0	0	0	0	403	
15	0	0	0	0	343	
0	0	0	0	0	347	
1	0	0	0	0	366	
2	0	0	0	0	419	
3	0	0	0	0	461	
4	0	0	0	0	503	
5	0	0	0	0	518	
6	0	0	0	0	545	
7	0	0	0	0	568	
8	0	0	0	0	535	
9	0	0	0	0	591	
10	0	0	0	0	670	
11	0	0	0	0	694	
12	0	0	0	0	592	
13	0	0	0	0	529	
14	0	0	0	0	482	
15	0	0	0	0	370	
0	0	0	0	0	352	
1	0	0	0	0	355	
2	0	0	0	0	409	
3	0	0	0	0	415	
4	0	0	0	0	476	
5	0	0	0	0	524	
6	0	0	0	0	526	
7	0	0	0	0	562	
8	0	0	0	0	573	
9	0	0	0	0	513	
10	0	0	0	0	584	
11	0	0	0	0	685	
12	0	0	0	0	657	
13	0	0	0	0	576	
14	0	0	0	0	547	
15	0	0	0	0	463	
0	0	0	0	0	373	
1	0	0	0	0	356	
2	0	0	0	0	346	
3	0	0	0	0	417	
4	0	0	0	0	415	
5	0	0	0	0	449	
6	0	0	0	0	517	
7	0	0	0	0	550	
8	0	0	0	0	583	
9	0	0	0	0	579	
10	0	0	0	0	552	
11	0	0	0	0	639	
12	0	0	0	0	713	
13	0	0	0	0	620	
14	0	0	0	0	541	
15	0	0	0	0	510	
0	0	0	0	0	385	
1	0	0	0	0	374	
2	0	0	0	0	398	
3	0	0	0	0	372	
4	0	0	0	0	429	
5	0	0	0	0	451	
6	0	0	0	0	513	
7	0	0	0	0	547	
8	0	0	0	0	567	
9	0	0	0	0	571	
10	0	0	0	0	534	
11	0	0	0	0	572	
12	0	0	0	0	645	
13	0	0	0	0	698	
14	0	0	0	0	598	
15	0	0	0	0	525	
0	0	0	0	0	500	
1	0	0	0	0	382	
2	0	0	0	0	331	
3	0	0	0	0	338	
4	0	0	0	0	396	
5	0	0	0	0	453	
6	0	0	0	0	499	
7	0	0	0	0	518	
8	0	0	0	0	517	
9	0	0	0	0	537	
10	0	0	0	0	547	
11	0	0	0	0	512	
12	0	0	0	0	583	
13	0	0	0	0	674	
14	0	0	0	0	671	
15	0	0	0	0	580	
0	0	0	0	0	538	
1	0	0	0	0	478	
2	0	0	0	0	388	
3	0	0	0	0	353	
4	0	0	0	0	337	
5	0	0	0	0	397	
6	0	0	0	0	399	
7	0	0	0	0	458	
8	0	0	0	0	532	
9	0	0	0	0	563	
10	0	0	0	0	564	
11	0	0	0	0	551	
12	0	0	0	0	526	
13	0	0	0	0	620	
14	0	0	0	0	741	
15	0	0	0	0	670	
0	0	0	0	0	574	
1	0	0	0	0	543	
2	0	0	0	0	431	
3	0	0	0	0	351	
4	0	0	0	0	342	
5	0	0	0	0	331	
6	0	0	0	0	416	
7	0	0	0	0	466	
8	0	0	0	0	514	
9	0	0	0	0	512	
10	0	0	0	0	532	
11	0	0	0	0	558	
12	0	0	0	0	549	
13	0	0	0	0	578	
14	0	0	0	0	654	
15	0	0	0	0	711	
0	0	0	0	0	616	
1	0	0	0	0	539	
2	0	0	0	0	517	
3	0	0	0	0	398	
4	0	0	0	0	348	
5	0	0	0	0	348	
6	0	0	0	0	365	
7	0	0	0	0	410	
8	0	0	0	0	452	
9	0	0	0	0	502	
10	0	0	0	0	520	
11	0	0	0	0	547	
12	0	0	0	0	563	
13	0	0	0	0	532	
14	0	0	0	0	606	
15	0	0	0	0	690	
0	0	0	0	0	694	
1	0	0	0	0	594	
2	0	0	0	0	536	
3	0	0	0	0	472	
4	0	0	0	0	348	
5	0	0	0	0	337	
6	0	0	0	0	354	
7	0	0	0	0	417	
8	0	0	0	0	421	
9	0	0	0	0	472	
10	0	0	0	0	513	
11	0	0	0	0	526	
12	0	0	0	0	553	
13	0	0	0	0	574	
14	0	0	0	0	551	
15	0	0	0	0	623	
0	0	0	0	0	711	
1	0	0	0	0	657	
2	0	0	0	0	565	
3	0	0	0	0	533	
4	0	0	0	0	441	
5	0	0	0	0	353	
6	0	0	0	0	349	
7	0	0	0	0	332	
8	0	0	0	0	402	
9	0	0	0	0	451	
10	0	0	0	0	516	
11	0	0	0	0	512	
12	0	0	0	0	516	
13	0	0	0	0	571	
14	0	0	0	0	583	
15	0	0	0	0	572	
0	0	0	0	0	639	
1	0	0	0	0	721	
2	0	0	0	0	624	
3	0	0	0	0	536	
4	0	0	0	0	515	
5	0	0	0	0	392	
6	0	0	0	0	341	
7	0	0	0	0	342	
8	0	0	0	0	354	
9	0	0	0	0	408	
10	0	0	0	0	470	
11	0	0	0	0	522	
12	0	0	0	0	530	
13	0	0	0	0	575	
14	0	0	0	0	592	
15	0	0	0	0	536	
0	0	0	0	0	586	
1	0	0	0	0	674	
2	0	0	0	0	734	
3	0	0	0	0	610	
4	0	0	0	0	538	
5	0	0	0	0	504	
6	0	0	0	0	386	
7	0	0	0	0	338	
8	0	0	0	0	321	
9	0	0	0	0	364	
10	0	0	0	0	383	
11	0	0	0	0	446	
12	0	0	0	0	501	
13	0	0	0	0	525	
14	0	0	0	0	557	
15	0	0	0	0	564	
0	0	0	0	0	532	
1	0	0	0	0	612	
2	0	0	0	0	707	
3	0	0	0	0	685	
4	0	0	0	0	586	
5	0	0	0	0	539	
6	0	0	0	0	451	
7	0	0	0	0	356	
8	0	0	0	0	323	
9	0	0	0	0	311	
10	0	0	0	0	396	
11	0	0	0	0	421	
12	0	0	0	0	486	
13	0	0	0	0	520	
14	0	0	0	0	526	
15	0	0	0	0	553	
0	0	0	0	0	561	
1	0	0	0	0	573	
2	0	0	0	0	687	
3	0	0	0	0	790	
4	0	0	0	0	671	
5	0	0	0	0	547	
6	0	0	0	0	535	
7	0	0	0	0	449	
8	0	0	0	0	359	
9	0	0	0	0	336	
10	0	0	0	0	328	
11	0	0	0	0	403	
12	0	0	0	0	430	
13	0	0	0	0	481	
14	0	0	0	0	508	
15	0	0	0	0	535	
0	0	0	0	0	561	
1	0	0	0	0	543	
2	0	0	0	0	578	
3	0	0	0	0	662	
4	0	0	0	0	718	
5	0	0	0	0	626	
6	0	0	0	0	547	
7	0	0	0	0	520	
8	0	0	0	0	393	
9	0	0	0	0	333	
10	0	0	0	0	323	
11	0	0	0	0	348	
12	0	0	0	0	427	
13	0	0	0	0	467	
14	0	0	0	0	510	
15	0	0	0	0	523	
0	0	0	0	0	547	
1	0	0	0	0	577	
2	0	0	0	0	556	
3	0	0	0	0	625	
4	0	0	0	0	701	
5	0	0	0	0	688	
6	0	0	0	0	588	
7	0	0	0	0	534	
8	0	0	0	0	463	
9	0	0	0	0	379	
10	0	0	0	0	333	
11	0	0	0	0	319	
12	0	0	0	0	394	
13	0	0	0	0	416	
14	0	0	0	0	463	
15	0	0	0	0	496	
0	0	0	0	0	536	
1	0	0	0	0	594	
2	0	0	0	0	610	
3	0	0	0	0	551	
4	0	0	0	0	599	
5	0	0	0	0	675	
6	0	0	0	0	630	
7	0	0	0	0	574	
8	0	0	0	0	540	
9	0	0	0	0	438	
10	0	0	0	0	347	
11	0	0	0	0	333	
12	0	0	0	0	333	
13	0	0	0	0	408	
14	0	0	0	0	444	
15	0	0	0	0	497	
0	0	0	0	0	533	
1	0	0	0	0	563	
2	0	0	0	0	586	
3	0	0	0	0	567	
4	0	0	0	0	568	
5	0	0	0	0	650	
6	0	0	0	0	713	
7	0	0	0	0	618	
8	0	0	0	0	546	
9	0	0	0	0	528	
10	0	0	0	0	404	
11	0	0	0	0	334	
12	0	0	0	0	342	
13	0	0	0	0	354	
14	0	0	0	0	395	
15	0	0	0	0	442	
0	0	0	0	0	500	
1	0	0	0	0	531	
2	0	0	0	0	555	
3	0	0	0	0	590	
4	0	0	0	0	560	
5	0	0	0	0	603	
6	0	0	0	0	688	
7	0	0	0	0	719	
8	0	0	0	0	606	
9	0	0	0	0	555	
10	0	0	0	0	504	
11	0	0	0	0	378	
12	0	0	0	0	316	
13	0	0	0	0	322	
14	0	0	0	0	361	
15	0	0	0	0	381	
0	0	0	0	0	445	
1	0	0	0	0	512	
2	0	0	0	0	547	
3	0	0	0	0	583	
4	0	0	0	0	572	
5	0	0	0	0	520	
6	0	0	0	0	572	
7	0	0	0	0	680	
8	0	0	0	0	693	
9	0	0	0	0	609	
10	0	0	0	0	549	
11	0	0	0	0	435	
12	0	0	0	0	351	
13	0	0	0	0	361	
14	0	0	0	0	344	
15	0	0	0	0	417	
0	0	0	0	0	423	
1	0	0	0	0	466	
2	0	0	0	0	506	
3	0	0	0	0	532	
4	0	0	0	0	570	
5	0	0	0	0	577	
6	0	0	0	0	576	
7	0	0	0	0	657	
8	0	0	0	0	734	
9	0	0	0	0	635	
10	0	0	0	0	553	
11	0	0	0	0	533	
12	0	0	0	0	427	
13	0	0	0	0	351	
14	0	0	0	0	344	
15	0	0	0	0	337	
0	0	0	0	0	403	
1	0	0	0	0	442	
2	0	0	0	0	489	
3	0	0	0	0	513	
4	0	0	0	0	546	
5	0	0	0	0	569	
6	0	0	0	0	543	
7	0	0	0	0	602	
8	0	0	0	0	679	
9	0	0	0	0	723	
10	0	0	0	0	623	
11	0	0	0	0	542	
12	0	0	0	0	505	
13	0	0	0	0	386	
14	0	0	0	0	335	
15	0	0	0	0	329	
0	0	0	0	0	364	
1	0	0	0	0	392	
2	0	0	0	0	461	
3	0	0	0	0	513	
4	0	0	0	0	523	
5	0	0	0	0	550	
6	0	0	0	0	572	
7	0	0	0	0	544	
8	0	0	0	0	612	
9	0	0	0	0	702	
10	0	0	0	0	686	
11	0	0	0	0	583	
12	0	0	0	0	556	
13	0	0	0	0	479	
14	0	0	0	0	376	
15	0	0	0	0	344	
0	0	0	0	0	327	
1	0	0	0	0	396	
2	0	0	0	0	409	
3	0	0	0	0	460	
4	0	0	0	0	500	
5	0	0	0	0	526	
6	0	0	0	0	564	
7	0	0	0	0	568	
8	0	0	0	0	545	
9	0	0	0	0	639	
10	0	0	0	0	729	
11	0	0	0	0	642	
12	0	0	0	0	543	
13	0	0	0	0	539	
14	0	0	0	0	454	
15	0	0	0	0	364	
0	0	0	0	0	350	
1	0	0	0	0	348	
2	0	0	0	0	409	
3	0	0	0	0	410	
4	0	0	0	0	458	
5	0	0	0	0	501	
6	0	0	0	0	552	
7	0	0	0	0	600	
8	0	0	0	0	578	
9	0	0	0	0	612	
10	0	0	0	0	724	
11	0	0	0	0	767	
12	0	0	0	0	627	
13	0	0	0	0	523	
14	0	0	0	0	469	
15	0	0	0	0	356	
0	0	0	0	0	319	
1	0	0	0	0	314	
2	0	0	0	0	343	
3	0	0	0	0	373	
4	0	0	0	0	466	
5	0	0	0	0	524	
6	0	0	0	0	525	
7	0	0	0	0	537	
8	0	0	0	0	591	
9	0	0	0	0	577	
10	0	0	0	0	624	
11	0	0	0	0	688	
12	0	0	0	0	700	
13	0	0	0	0	596	
14	0	0	0	0	544	
15	0	0	0	0	485	
0	0	0	0	0	372	
1	0	0	0	0	332	
2	0	0	0	0	324	
3	0	0	0	0	376	
4	0	0	0	0	389	
5	0	0	0	0	456	
6	0	0	0	0	499	
7	0	0	0	0	519	
8	0	0	0	0	558	
9	0	0	0	0	577	
10	0	0	0	0	555	
11	0	0	0	0	634	
12	0	0	0	0	728	
13	0	0	0	0	681	
14	0	0	0	0	590	
15	0	0	0	0	540	
0	0	0	0	0	449	
1	0	0	0	0	355	
2	0	0	0	0	331	
3	0	0	0	0	309	
4	0	0	0	0	395	
5	0	0	0	0	419	
6	0	0	0	0	470	
7	0	0	0	0	519	
8	0	0	0	0	556	
9	0	0	0	0	583	
10	0	0	0	0	572	
11	0	0	0	0	574	
12	0	0	0	0	657	
13	0	0	0	0	742	
14	0	0	0	0	645	
15	0	0	0	0	554	
0	0	0	0	0	522	
1	0	0	0	0	411	
2	0	0	0	0	344	
3	0	0	0	0	335	
4	0	0	0	0	345	
5	0	0	0	0	403	
6	0	0	0	0	436	
7	0	0	0	0	483	
8	0	0	0	0	520	
9	0	0	0	0	556	
10	0	0	0	0	566	
11	0	0	0	0	516	
12	0	0	0	0	583	
13	0	0	0	0	687	
14	0	0	0	0	730	
15	0	0	0	0	624	
0	0	0	0	0	553	
1	0	0	0	0	508	
2	0	0	0	0	384	
3	0	0	0	0	336	
4	0	0	0	0	320	
5	0	0	0	0	375	
6	0	0	0	0	416	
7	0	0	0	0	463	
8	0	0	0	0	501	
9	0	0	0	0	509	
10	0	0	0	0	547	
11	0	0	0	0	575	
12	0	0	0	0	552	
13	0	0	0	0	631	
14	0	0	0	0	702	
15	0	0	0	0	656	
0	0	0	0	0	573	
1	0	0	0	0	554	
2	0	0	0	0	478	
3	0	0	0	0	364	
4	0	0	0	0	330	
5	0	0	0	0	323	
6	0	0	0	0	408	
7	0	0	0	0	423	
8	0	0	0	0	476	
9	0	0	0	0	499	
10	0	0	0	0	518	
11	0	0	0	0	560	
12	0	0	0	0	572	
13	0	0	0	0	563	
14	0	0	0	0	643	
15	0	0	0	0	725	
0	0	0	0	0	637	
1	0	0	0	0	586	
2	0	0	0	0	561	
3	0	0	0	0	441	
4	0	0	0	0	352	
5	0	0	0	0	343	
6	0	0	0	0	330	
7	0	0	0	0	391	
8	0	0	0	0	422	
9	0	0	0	0	481	
10	0	0	0	0	510	
11	0	0	0	0	545	
12	0	0	0	0	575	
13	0	0	0	0	560	
14	0	0	0	0	593	
15	0	0	0	0	672	
0	0	0	0	0	727	
1	0	0	0	0	620	
2	0	0	0	0	554	
3	0	0	0	0	526	
4	0	0	0	0	390	
5	0	0	0	0	333	
6	0	0	0	0	326	
7	0	0	0	0	357	
8	0	0	0	0	393	
9	0	0	0	0	455	
10	0	0	0	0	498	
11	0	0	0	0	519	
12	0	0	0	0	554	
13	0	0	0	0	586	
14	0	0	0	0	547	
15	0	0	0	0	610	
0	0	0	0	0	686	
1	0	0	0	0	692	
2	0	0	0	0	596	
3	0	0	0	0	544	
4	0	0	0	0	477	
5	0	0	0	0	367	
6	0	0	0	0	327	
7	0	0	0	0	317	
8	0	0	0	0	380	
9	0	0	0	0	415	
10	0	0	0	0	475	
11	0	0	0	0	511	
12	0	0	0	0	510	
13	0	0	0	0	571	
14	0	0	0	0	579	
15	0	0	0	0	552	
0	0	0	0	0	622	
1	0	0	0	0	695	
2	0	0	0	0	685	
3	0	0	0	0	622	
4	0	0	0	0	564	
5	0	0	0	0	435	
6	0	0	0	0	348	
7	0	0	0	0	345	
8	0	0	0	0	330	
9	0	0	0	0	395	
10	0	0	0	0	423	
11	0	0	0	0	468	
12	0	0	0	0	484	
13	0	0	0	0	531	
14	0	0	0	0	586	
15	0	0	0	0	570	
0	0	0	0	0	574	
1	0	0	0	0	665	
2	0	0	0	0	752	
3	0	0	0	0	648	
4	0	0	0	0	545	
5	0	0	0	0	519	
6	0	0	0	0	409	
7	0	0	0	0	366	
8	0	0	0	0	376	
9	0	0	0	0	396	
10	0	0	0	0	399	
11	0	0	0	0	422	
12	0	0	0	0	459	
13	0	0	0	0	483	
14	0	0	0	0	518	
15	0	0	0	0	541	
0	0	0	0	0	516	
1	0	0	0	0	588	
2	0	0	0	0	716	
3	0	0	0	0	714	
4	0	0	0	0	612	
5	0	0	0	0	548	
6	0	0	0	0	488	
7	0	0	0	0	397	
8	0	0	0	0	358	
9	0	0	0	0	328	
10	0	0	0	0	391	
11	0	0	0	0	418	
12	0	0	0	0	466	
13	0	0	0	0	513	
14	0	0	0	0	522	
15	0	0	0	0	556	
0	0	0	0	0	574	
1	0	0	0	0	548	
2	0	0	0	0	628	
3	0	0	0	0	700	
4	0	0	0	0	652	
5	0	0	0	0	567	
6	0	0	0	0	537	
7	0	0	0	0	451	
8	0	0	0	0	361	
9	0	0	0	0	346	
10	0	0	0	0	326	
11	0	0	0	0	401	
12	0	0	0	0	418	
13	0	0	0	0	475	
14	0	0	0	0	513	
15	0	0	0	0	530	
0	0	0	0	0	561	
1	0	0	0	0	569	
2	0	0	0	0	575	
3	0	0	0	0	677	
4	0	0	0	0	750	
5	0	0	0	0	640	
6	0	0	0	0	556	
7	0	0	0	0	534	
8	0	0	0	0	412	
9	0	0	0	0	342	
10	0	0	0	0	344	
11	0	0	0	0	347	
12	0	0	0	0	398	
13	0	0	0	0	432	
14	0	0	0	0	490	
15	0	0	0	0	515	
0	0	0	0	0	555	
1	0	0	0	0	574	
2	0	0	0	0	546	
3	0	0	0	0	600	
4	0	0	0	0	683	
5	0	0	0	0	721	
6	0	0	0	0	621	
7	0	0	0	0	548	
8	0	0	0	0	500	
9	0	0	0	0	385	
10	0	0	0	0	335	
11	0	0	0	0	327	
12	0	0	0	0	366	
13	0	0	0	0	388	
14	0	0	0	0	444	
15	0	0	0	0	496	
0	0	0	0	0	516	
1	0	0	0	0	547	
2	0	0	0	0	573	
3	0	0	0	0	546	
4	0	0	0	0	627	
5	0	0	0	0	729	
6	0	0	0	0	724	
7	0	0	0	0	609	
8	0	0	0	0	524	
9	0	0	0	0	451	
10	0	0	0	0	352	
11	0	0	0	0	317	
12	0	0	0	0	344	
13	0	0	0	0	416	
14	0	0	0	0	409	
15	0	0	0	0	461	
0	0	0	0	0	500	
1	0	0	0	0	507	
2	0	0	0	0	565	
3	0	0	0	0	615	
4	0	0	0	0	624	
5	0	0	0	0	696	
6	0	0	0	0	788	
7	0	0	0	0	695	
8	0	0	0	0	568	
9	0	0	0	0	471	
10	0	0	0	0	328	
11	0	0	0	0	279	
12	0	0	0	0	269	
13	0	0	0	0	272	
14	0	0	0	0	359	
15	0	0	0	0	415	
0	0	0	0	0	499	
1	0	0	0	0	533	
2	0	0	0	0	563	
3	0	0	0	0	588	
4	0	0	0	0	576	
5	0	0	0	0	612	
6	0	0	0	0	690	
7	0	0	0	0	741	
8	0	0	0	0	651	
9	0	0	0	0	565	
10	0	0	0	0	524	
11	0	0	0	0	397	
12	0	0	0	0	342	
13	0	0	0	0	335	
14	0	0	0	0	364	
15	0	0	0	0	390	
0	0	0	0	0	435	
1	0	0	0	0	480	
2	0	0	0	0	497	
3	0	0	0	0	583	
4	0	0	0	0	609	
5	0	0	0	0	555	
6	0	0	0	0	619	
7	0	0	0	0	689	
8	0	0	0	0	699	
9	0	0	0	0	607	
10	0	0	0	0	550	
11	0	0	0	0	472	
12	0	0	0	0	364	
13	0	0	0	0	332	
14	0	0	0	0	322	
15	0	0	0	0	385	
0	0	0	0	0	401	
1	0	0	0	0	462	
2	0	0	0	0	511	
3	0	0	0	0	521	
4	0	0	0	0	553	
5	0	0	0	0	556	
6	0	0	0	0	546	
7	0	0	0	0	631	
8	0	0	0	0	736	
9	0	0	0	0	670	
10	0	0	0	0	581	
11	0	0	0	0	550	
12	0	0	0	0	442	
13	0	0	0	0	350	
14	0	0	0	0	345	
15	0	0	0	0	340	
0	0	0	0	0	412	
1	0	0	0	0	420	
2	0	0	0	0	479	
3	0	0	0	0	502	
4	0	0	0	0	527	
5	0	0	0	0	562	
6	0	0	0	0	563	
7	0	0	0	0	584	
8	0	0	0	0	667	
9	0	0	0	0	733	
10	0	0	0	0	626	
11	0	0	0	0	545	
12	0	0	0	0	536	
13	0	0	0	0	421	
14	0	0	0	0	354	
15	0	0	0	0	337	
0	0	0	0	0	357	
1	0	0	0	0	414	
2	0	0	0	0	452	
3	0	0	0	0	491	
4	0	0	0	0	511	
5	0	0	0	0	536	
6	0	0	0	0	560	
7	0	0	0	0	537	
8	0	0	0	0	611	
9	0	0	0	0	691	
10	0	0	0	0	707	
11	0	0	0	0	608	
12	0	0	0	0	540	
13	0	0	0	0	486	
14	0	0	0	0	380	
15	0	0	0	0	332	
0	0	0	0	0	325	
1	0	0	0	0	382	
2	0	0	0	0	399	
3	0	0	0	0	452	
4	0	0	0	0	496	
5	0	0	0	0	503	
6	0	0	0	0	567	
7	0	0	0	0	599	
8	0	0	0	0	562	
9	0	0	0	0	627	
10	0	0	0	0	714	
11	0	0	0	0	686	
12	0	0	0	0	594	
13	0	0	0	0	545	
14	0	0	0	0	438	
15	0	0	0	0	319	
0	0	0	0	0	327	
1	0	0	0	0	355	
2	0	0	0	0	422	
3	0	0	0	0	432	
4	0	0	0	0	495	
5	0	0	0	0	523	
6	0	0	0	0	527	
7	0	0	0	0	545	
8	0	0	0	0	552	
9	0	0	0	0	564	
10	0	0	0	0	655	
11	0	0	0	0	740	
12	0	0	0	0	646	
13	0	0	0	0	565	
14	0	0	0	0	543	
15	0	0	0	0	421	
0	0	0	0	0	339	
1	0	0	0	0	331	
2	0	0	0	0	330	
3	0	0	0	0	396	
4	0	0	0	0	437	
5	0	0	0	0	492	
6	0	0	0	0	515	
7	0	0	0	0	545	
8	0	0	0	0	563	
9	0	0	0	0	540	
10	0	0	0	0	594	
11	0	0	0	0	684	
12	0	0	0	0	733	
13	0	0	0	0	629	
14	0	0	0	0	544	
15	0	0	0	0	505	
0	0	0	0	0	403	
1	0	0	0	0	353	
2	0	0	0	0	335	
3	0	0	0	0	365	
4	0	0	0	0	386	
5	0	0	0	0	457	
6	0	0	0	0	514	
7	0	0	0	0	536	
8	0	0	0	0	556	
9	0	0	0	0	569	
10	0	0	0	0	543	
11	0	0	0	0	614	
12	0	0	0	0	685	
13	0	0	0	0	682	
14	0	0	0	0	577	
15	0	0	0	0	526	
0	0	0	0	0	458	
1	0	0	0	0	364	
2	0	0	0	0	322	
3	0	0	0	0	311	
4	0	0	0	0	393	
5	0	0	0	0	408	
6	0	0	0	0	470	
7	0	0	0	0	514	
8	0	0	0	0	531	
9	0	0	0	0	573	
10	0	0	0	0	589	
11	0	0	0	0	591	
12	0	0	0	0	688	
13	0	0	0	0	754	
14	0	0	0	0	641	
15	0	0	0	0	542	
0	0	0	0	0	519	
1	0	0	0	0	428	
2	0	0	0	0	348	
3	0	0	0	0	337	
4	0	0	0	0	329	
5	0	0	0	0	396	
6	0	0	0	0	420	
7	0	0	0	0	476	
8	0	0	0	0	503	
9	0	0	0	0	532	
10	0	0	0	0	551	
11	0	0	0	0	559	
12	0	0	0	0	631	
13	0	0	0	0	725	
14	0	0	0	0	731	
15	0	0	0	0	617	
0	0	0	0	0	552	
1	0	0	0	0	513	
2	0	0	0	0	399	
3	0	0	0	0	345	
4	0	0	0	0	332	
5	0	0	0	0	362	
6	0	0	0	0	404	
7	0	0	0	0	450	
8	0	0	0	0	498	
9	0	0	0	0	518	
10	0	0	0	0	549	
11	0	0	0	0	567	
12	0	0	0	0	536	
13	0	0	0	0	608	
14	0	0	0	0	692	
15	0	0	0	0	696	
0	0	0	0	0	596	
1	0	0	0	0	544	
2	0	0	0	0	477	
3	0	0	0	0	366	
4	0	0	0	0	331	
5	0	0	0	0	319	
6	0	0	0	0	385	
7	0	0	0	0	398	
8	0	0	0	0	457	
9	0	0	0	0	490	
10	0	0	0	0	536	
11	0	0	0	0	585	
12	0	0	0	0	585	
13	0	0	0	0	560	
14	0	0	0	0	642	
15	0	0	0	0	734	
0	0	0	0	0	675	
1	0	0	0	0	572	
2	0	0	0	0	520	
3	0	0	0	0	452	
4	0	0	0	0	381	
5	0	0	0	0	355	
6	0	0	0	0	319	
7	0	0	0	0	388	
8	0	0	0	0	416	
9	0	0	0	0	482	
10	0	0	0	0	508	
11	0	0	0	0	523	
12	0	0	0	0	551	
13	0	0	0	0	560	
14	0	0	0	0	580	
15	0	0	0	0	667	
0	0	0	0	0	738	
1	0	0	0	0	637	
2	0	0	0	0	556	
3	0	0	0	0	531	
4	0	0	0	0	401	
5	0	0	0	0	344	
6	0	0	0	0	332	
7	0	0	0	0	336	
8	0	0	0	0	388	
9	0	0	0	0	453	
10	0	0	0	0	499	
11	0	0	0	0	535	
12	0	0	0	0	578	
13	0	0	0	0	584	
14	0	0	0	0	547	
15	0	0	0	0	595	
0	0	0	0	0	679	
1	0	0	0	0	712	
2	0	0	0	0	602	
3	0	0	0	0	540	
4	0	0	0	0	483	
5	0	0	0	0	363	
6	0	0	0	0	323	
7	0	0	0	0	314	
8	0	0	0	0	366	
9	0	0	0	0	406	
10	0	0	0	0	473	
11	0	0	0	0	509	
12	0	0	0	0	515	
13	0	0	0	0	531	
14	0	0	0	0	553	
15	0	0	0	0	576	
0	0	0	0	0	657	
1	0	0	0	0	716	
2	0	0	0	0	690	
3	0	0	0	0	574	
4	0	0	0	0	543	
5	0	0	0	0	502	
6	0	0	0	0	451	
7	0	0	0	0	412	
8	0	0	0	0	337	
9	0	0	0	0	360	
10	0	0	0	0	306	
11	0	0	0	0	364	
12	0	0	0	0	431	
13	0	0	0	0	494	
14	0	0	0	0	547	
15	0	0	0	0	574	
0	0	0	0	0	589	
1	0	0	0	0	681	
2	0	0	0	0	761	
3	0	0	0	0	673	
4	0	0	0	0	604	
5	0	0	0	0	563	
6	0	0	0	0	429	
7	0	0	0	0	358	
8	0	0	0	0	350	
9	0	0	0	0	337	
10	0	0	0	0	402	
11	0	0	0	0	454	
12	0	0	0	0	498	
13	0	0	0	0	517	
14	0	0	0	0	545	
15	0	0	0	0	565	
0	0	0	0	0	542	
1	0	0	0	0	592	
2	0	0	0	0	674	
3	0	0	0	0	714	
4	0	0	0	0	616	
5	0	0	0	0	543	
6	0	0	0	0	502	
7	0	0	0	0	376	
8	0	0	0	0	317	
9	0	0	0	0	312	
10	0	0	0	0	367	
11	0	0	0	0	434	
12	0	0	0	0	481	
13	0	0	0	0	508	
14	0	0	0	0	510	
15	0	0	0	0	530	
0	0	0	0	0	575	
1	0	0	0	0	563	
2	0	0	0	0	634	
3	0	0	0	0	707	
4	0	0	0	0	684	
5	0	0	0	0	580	
6	0	0	0	0	514	
7	0	0	0	0	448	
8	0	0	0	0	389	
9	0	0	0	0	362	
10	0	0	0	0	332	
11	0	0	0	0	399	
12	0	0	0	0	412	
13	0	0	0	0	475	
14	0	0	0	0	508	
15	0	0	0	0	527	
0	0	0	0	0	561	
1	0	0	0	0	582	
2	0	0	0	0	564	
3	0	0	0	0	629	
4	0	0	0	0	718	
5	0	0	0	0	649	
6	0	0	0	0	562	
7	0	0	0	0	534	
8	0	0	0	0	420	
9	0	0	0	0	350	
10	0	0	0	0	349	
11	0	0	0	0	342	
12	0	0	0	0	398	
13	0	0	0	0	428	
14	0	0	0	0	487	
15	0	0	0	0	515	
0	0	0	0	0	543	
1	0	0	0	0	563	
2	0	0	0	0	560	
3	0	0	0	0	604	
4	0	0	0	0	692	
5	0	0	0	0	737	
6	0	0	0	0	628	
7	0	0	0	0	549	
8	0	0	0	0	513	
9	0	0	0	0	394	
10	0	0	0	0	337	
11	0	0	0	0	332	
12	0	0	0	0	358	
13	0	0	0	0	390	
14	0	0	0	0	448	
15	0	0	0	0	496	
0	0	0	0	0	513	
1	0	0	0	0	542	
2	0	0	0	0	562	
3	0	0	0	0	542	
4	0	0	0	0	620	
5	0	0	0	0	707	
6	0	0	0	0	705	
7	0	0	0	0	600	
8	0	0	0	0	544	
9	0	0	0	0	483	
10	0	0	0	0	374	
11	0	0	0	0	341	
12	0	0	0	0	327	
13	0	0	0	0	384	
14	0	0	0	0	402	
15	0	0	0	0	466	
0	0	0	0	0	507	
1	0	0	0	0	523	
2	0	0	0	0	557	
3	0	0	0	0	579	
4	0	0	0	0	561	
5	0	0	0	0	643	
6	0	0	0	0	733	
7	0	0	0	0	664	
8	0	0	0	0	565	
9	0	0	0	0	527	
10	0	0	0	0	435	
11	0	0	0	0	345	
12	0	0	0	0	339	
13	0	0	0	0	333	
14	0	0	0	0	405	
15	0	0	0	0	435	
0	0	0	0	0	495	
1	0	0	0	0	519	
2	0	0	0	0	535	
3	0	0	0	0	557	
4	0	0	0	0	564	
5	0	0	0	0	594	
6	0	0	0	0	679	
7	0	0	0	0	754	
8	0	0	0	0	642	
9	0	0	0	0	546	
10	0	0	0	0	514	
11	0	0	0	0	385	
12	0	0	0	0	304	
13	0	0	0	0	334	
14	0	0	0	0	364	
15	0	0	0	0	398	
0	0	0	0	0	440	
1	0	0	0	0	501	
2	0	0	0	0	522	
3	0	0	0	0	552	
4	0	0	0	0	571	
5	0	0	0	0	547	
6	0	0	0	0	606	
7	0	0	0	0	694	
8	0	0	0	0	705	
9	0	0	0	0	600	
10	0	0	0	0	557	
11	0	0	0	0	515	
12	0	0	0	0	402	
13	0	0	0	0	335	
14	0	0	0	0	313	
15	0	0	0	0	358	
0	0	0	0	0	383	
1	0	0	0	0	450	
2	0	0	0	0	499	
3	0	0	0	0	521	
4	0	0	0	0	560	
5	0	0	0	0	573	
6	0	0	0	0	550	
7	0	0	0	0	626	
8	0	0	0	0	720	
9	0	0	0	0	680	
10	0	0	0	0	585	
11	0	0	0	0	545	
12	0	0	0	0	448	
13	0	0	0	0	358	
14	0	0	0	0	339	
15	0	0	0	0	329	
0	0	0	0	0	411	
1	0	0	0	0	421	
2	0	0	0	0	487	
3	0	0	0	0	518	
4	0	0	0	0	519	
5	0	0	0	0	563	
6	0	0	0	0	579	
7	0	0	0	0	569	
8	0	0	0	0	648	
9	0	0	0	0	738	
10	0	0	0	0	647	
11	0	0	0	0	564	
12	0	0	0	0	533	
13	0	0	0	0	403	
14	0	0	0	0	343	
15	0	0	0	0	341	
0	0	0	0	0	340	
1	0	0	0	0	397	
2	0	0	0	0	435	
3	0	0	0	0	487	
4	0	0	0	0	510	
5	0	0	0	0	543	
6	0	0	0	0	575	
7	0	0	0	0	557	
8	0	0	0	0	598	
9	0	0	0	0	684	
10	0	0	0	0	727	
11	0	0	0	0	628	
12	0	0	0	0	557	
13	0	0	0	0	513	
14	0	0	0	0	396	
15	0	0	0	0	341	
0	0	0	0	0	320	
1	0	0	0	0	355	
2	0	0	0	0	382	
3	0	0	0	0	435	
4	0	0	0	0	485	
5	0	0	0	0	503	
6	0	0	0	0	560	
7	0	0	0	0	579	
8	0	0	0	0	550	
9	0	0	0	0	628	
10	0	0	0	0	711	
11	0	0	0	0	692	
12	0	0	0	0	593	
13	0	0	0	0	544	
14	0	0	0	0	458	
15	0	0	0	0	367	
0	0	0	0	0	342	
1	0	0	0	0	326	
2	0	0	0	0	397	
3	0	0	0	0	412	
4	0	0	0	0	466	
5	0	0	0	0	504	
6	0	0	0	0	527	
7	0	0	0	0	568	
8	0	0	0	0	587	
9	0	0	0	0	574	
10	0	0	0	0	646	
11	0	0	0	0	727	
12	0	0	0	0	650	
13	0	0	0	0	567	
14	0	0	0	0	543	
15	0	0	0	0	437	
0	0	0	0	0	367	
1	0	0	0	0	371	
2	0	0	0	0	362	
3	0	0	0	0	388	
4	0	0	0	0	396	
5	0	0	0	0	440	
6	0	0	0	0	480	
7	0	0	0	0	528	
8	0	0	0	0	565	
9	0	0	0	0	551	
10	0	0	0	0	582	
11	0	0	0	0	668	
12	0	0	0	0	728	
13	0	0	0	0	644	
14	0	0	0	0	566	
15	0	0	0	0	528	
0	0	0	0	0	408	
1	0	0	0	0	348	
2	0	0	0	0	341	
3	0	0	0	0	366	
4	0	0	0	0	398	
5	0	0	0	0	455	
6	0	0	0	0	510	
7	0	0	0	0	527	
8	0	0	0	0	553	
9	0	0	0	0	555	
10	0	0	0	0	512	
11	0	0	0	0	583	
12	0	0	0	0	678	
13	0	0	0	0	693	
14	0	0	0	0	614	
15	0	0	0	0	577	
0	0	0	0	0	501	
1	0	0	0	0	370	
2	0	0	0	0	316	
3	0	0	0	0	284	
4	0	0	0	0	375	
5	0	0	0	0	422	
6	0	0	0	0	478	
7	0	0	0	0	518	
8	0	0	0	0	537	
9	0	0	0	0	576	
10	0	0	0	0	583	
11	0	0	0	0	554	
12	0	0	0	0	643	
13	0	0	0	0	737	
14	0	0	0	0	662	
15	0	0	0	0	559	
0	0	0	0	0	524	
1	0	0	0	0	422	
2	0	0	0	0	352	
3	0	0	0	0	329	
4	0	0	0	0	315	
5	0	0	0	0	401	
6	0	0	0	0	441	
7	0	0	0	0	505	
8	0	0	0	0	535	
9	0	0	0	0	543	
10	0	0	0	0	575	
11	0	0	0	0	560	
12	0	0	0	0	574	
13	0	0	0	0	654	
14	0	0	0	0	719	
15	0	0	0	0	631	
0	0	0	0	0	565	
1	0	0	0	0	553	
2	0	0	0	0	439	
3	0	0	0	0	379	
4	0	0	0	0	356	
5	0	0	0	0	321	
6	0	0	0	0	348	
7	0	0	0	0	405	
8	0	0	0	0	466	
9	0	0	0	0	496	
10	0	0	0	0	539	
11	0	0	0	0	570	
12	0	0	0	0	550	
13	0	0	0	0	624	
14	0	0	0	0	717	
15	0	0	0	0	731	
0	0	0	0	0	622	
1	0	0	0	0	545	
2	0	0	0	0	478	
3	0	0	0	0	362	
4	0	0	0	0	316	
5	0	0	0	0	313	
6	0	0	0	0	374	
7	0	0	0	0	398	
8	0	0	0	0	481	
9	0	0	0	0	512	
10	0	0	0	0	520	
11	0	0	0	0	566	
12	0	0	0	0	584	
13	0	0	0	0	554	
14	0	0	0	0	636	
15	0	0	0	0	736	
0	0	0	0	0	691	
1	0	0	0	0	571	
2	0	0	0	0	525	
3	0	0	0	0	435	
4	0	0	0	0	352	
5	0	0	0	0	336	
6	0	0	0	0	318	
7	0	0	0	0	389	
8	0	0	0	0	411	
9	0	0	0	0	477	
10	0	0	0	0	512	
11	0	0	0	0	536	
12	0	0	0	0	567	
13	0	0	0	0	569	
14	0	0	0	0	576	
15	0	0	0	0	664	
0	0	0	0	0	748	
1	0	0	0	0	654	
2	0	0	0	0	563	
3	0	0	0	0	538	
4	0	0	0	0	417	
5	0	0	0	0	350	
6	0	0	0	0	340	
7	0	0	0	0	340	
8	0	0	0	0	397	
9	0	0	0	0	437	
10	0	0	0	0	487	
11	0	0	0	0	511	
12	0	0	0	0	542	
13	0	0	0	0	569	
14	0	0	0	0	547	
15	0	0	0	0	600	
0	0	0	0	0	689	
1	0	0	0	0	721	
2	0	0	0	0	616	
3	0	0	0	0	545	
4	0	0	0	0	499	
5	0	0	0	0	389	
6	0	0	0	0	338	
7	0	0	0	0	325	
8	0	0	0	0	368	
9	0	0	0	0	390	
10	0	0	0	0	456	
11	0	0	0	0	505	
12	0	0	0	0	521	
13	0	0	0	0	557	
14	0	0	0	0	570	
15	0	0	0	0	544	
0	0	0	0	0	622	
1	0	0	0	0	710	
2	0	0	0	0	684	
3	0	0	0	0	594	
4	0	0	0	0	547	
5	0	0	0	0	463	
6	0	0	0	0	359	
7	0	0	0	0	327	
8	0	0	0	0	312	
9	0	0	0	0	387	
10	0	0	0	0	410	
11	0	0	0	0	467	
12	0	0	0	0	489	
13	0	0	0	0	519	
14	0	0	0	0	587	
15	0	0	0	0	599	
0	0	0	0	0	586	
1	0	0	0	0	672	
2	0	0	0	0	763	
3	0	0	0	0	661	
4	0	0	0	0	567	
5	0	0	0	0	539	
6	0	0	0	0	414	
7	0	0	0	0	336	
8	0	0	0	0	350	
9	0	0	0	0	332	
10	0	0	0	0	388	
11	0	0	0	0	425	
12	0	0	0	0	481	
13	0	0	0	0	499	
14	0	0	0	0	521	
15	0	0	0	0	552	
0	0	0	0	0	553	
1	0	0	0	0	606	
2	0	0	0	0	676	
3	0	0	0	0	736	
4	0	0	0	0	636	
5	0	0	0	0	554	
6	0	0	0	0	511	
7	0	0	0	0	391	
8	0	0	0	0	336	
9	0	0	0	0	333	
10	0	0	0	0	383	
11	0	0	0	0	409	
12	0	0	0	0	456	
13	0	0	0	0	502	
14	0	0	0	0	510	
15	0	0	0	0	540	
0	0	0	0	0	560	
1	0	0	0	0	536	
2	0	0	0	0	616	
3	0	0	0	0	701	
4	0	0	0	0	695	
